,0,1,2,3,4,5,6,7,8,9,10,11,12,13,14,15,16,17,18,19,20,21,22,23,24,25,26,27,28,29,30,31,32,33,34,35,36,37,38,39,40,41,42,43,44,45,46,47,48,49,50,51,52,53,54,55,56,57,58,59,60,61,62,63,64,65,66,67,68,69,70,71,72,73,74,75,76,77,78,79,80,81,82,83,84,85,86,87,88,89,90,91,92,93,94,95,96,97,98,99,100,101,102,103,104,105,106,107,108,109,110,111,112,113,114,115,116,117,118,119,120,121,122,123,124,125,126,127,128,129,130,131,132,133,134,135,136,137,138,139,140,141,142,143,144,145,146,147,148,149,150,151,152,153,154,155,156,157,158,159,160,161,162,163,164,165,166,167,168,169,170,171,172,173,174,175,176,177,178,179,180,181,182,183,184,185,186,187,188,189,190,191,192,193,194,195,196,197,198,199,200,201,202,203,204,205,206,207,208,209,210,211,212,213,214,215,216,217,218,219,220,221,222,223,224,225,226,227,228,229,230,231,232,233,234,235,236,237,238,239,240,241,242,243,244,245,246,247,248,249,250,251,252,253,254,255,256,257,258,259,260,261,262,263,264,265,266,267,268,269,270,271,272,273,274,275,276,277,278,279,280,281,282,283,284,285,286,287,288,289,290,291,292,293,294,295,296,297,298,299,300,301,302,303,304,305,306,307,308,309,310,311,312,313,314,315,316,317,318,319,320,321,322,323,324,325,326,327,328,329,330,331,332,333,334,335,336,337,338,339,340,341,342,343,344,345,346,347,348,349,350,351,352,353,354,355,356,357,358,359,360,361,362,363,364,365,366,367,368,369,370,371,372,373,374,375,376,377,378,379,380,381,382,383,384,385,386,387,388,389,390,391,392,393,394,395,396,397,398,399,400,401,402,403,404,405,406,407,408,409,410,411,412,413,414,415,416,417,418,419,420,421,422,423,424,425,426,427,428,429,430,431,432,433,434,435,436,437,438,439,440,441,442,443,444,445,446,447,448,449,450,451,452,453,454,455,456,457,458,459,460,461,462,463,464,465,466,467,468,469,470,471,472,473,474,475,476,477,478,479,480,481,482,483,484,485,486,487,488,489,490,491,492,493,494,495,496,497,498,499,500,501,502,503,504,505,506,507,508,509,510,511,512,513,514,515,516,517,518,519,520,521,522,523,524,525,526,527,528,529,530,531,532,533,534,535,536,537,538,539,540,541,542,543,544,545,546,547,548,549,550,551,552,553,554,555,556,557,558,559,560,561,562,563,564,565,566,567,568,569,570,571,572,573,574,575,576,577,578,579,580,581,582,583,584,585,586,587,588,589,590,591,592,593,594,595,596,597,598,599,600,601,602,603,604,605,606,607,608,609,610,611,612,613,614,615,616,617,618,619,620,621,622,623,624,625,626,627,628,629,630,631,632,633,634,635,636,637,638,639,640,641,642,643,644,645,646,647,648,649,650,651,652,653,654,655,656,657,658,659,660,661,662,663,664,665,666,667,668,669,670,671,672,673,674,675,676,677,678,679,680,681,682,683,684,685,686,687,688,689,690,691,692,693,694,695,696,697,698,699,700,701,702,703,704,705,706,707,708,709,710,711,712,713,714,715,716,717,718,719,720,721,722,723,724,725,726,727,728,729,730,731,732,733,734,735,736,737,738,739,740,741,742,743,744,745,746,747,748,749,750,751,752,753,754,755,756,757,758,759,760,761,762,763,764,765,766,767,768,769,770,771,772,773,774,775,776,777,778,779,780,781,782,783,784,785,786,787,788,789,790,791,792,793,794,795,796,797,798,799,800,801,802,803,804,805,806,807,808,809,810,811,812,813,814,815,816,817,818,819,820,821,822,823,824,825,826,827,828,829,830,831,832,833,834,835,836,837,838,839,840,841,842,843,844,845,846,847,848,849,850,851,852,853,854,855,856,857,858,859,860,861,862,863,864,865,866,867,868,869,870,871,872,873,874,875,876,877,878,879,880,881,882,883,884,885,886,887,888,889,890,891,892,893,894,895,896,897,898,899,900,901,902,903,904,905,906,907,908,909,910,911,912,913,914,915,916,917,918,919,920,921,922,923,924,925,926,927,928,929,930,931,932,933,934,935,936,937,938,939,940,941,942,943,944,945,946,947,948,949,950,951,952,953,954,955,956,957,958,959,960,961,962,963,964,965,966,967,968,969,970,971,972,973,974,975,976,977,978,979,980,981,982,983,984,985,986,987,988,989,990,991,992,993,994,995,996,997,998,999,1000,1001,1002,1003,1004,1005,1006,1007,1008,1009,1010,1011,1012,1013,1014,1015,1016,1017,1018,1019,1020,1021,1022,1023,1024,1025,1026,1027,1028,1029,1030,1031,1032,1033,1034,1035,1036,1037,1038,1039,1040,1041,1042,1043,1044,1045,1046,1047,1048,1049,1050,1051,1052,1053,1054,1055,1056,1057,1058,1059,1060,1061,1062,1063,1064,1065,1066,1067,1068,1069,1070,1071,1072,1073,1074,1075,1076,1077,1078,1079,1080,1081,1082,1083,1084,1085,1086,1087,1088,1089,1090,1091,1092,1093,1094,1095,1096,1097,1098,1099,1100,1101,1102,1103,1104,1105,1106,1107,1108,1109,1110,1111,1112,1113,1114,1115,1116,1117,1118,1119,1120,1121,1122,1123,1124,1125,1126,1127,1128,1129,1130,1131,1132,1133,1134,1135,1136,1137,1138,1139,1140,1141,1142,1143,1144,1145,1146,1147,1148,1149,1150,1151,1152,1153,1154,1155,1156,1157,1158,1159,1160,1161,1162,1163,1164,1165,1166,1167,1168,1169,1170,1171,1172,1173,1174,1175,1176,1177,1178,1179,1180,1181,1182,1183,1184,1185,1186,1187,1188,1189,1190,1191,1192,1193,1194,1195,1196,1197,1198,1199,1200,1201,1202,1203,1204,1205,1206,1207,1208,1209,1210,1211,1212,1213,1214,1215,1216,1217,1218,1219,1220,1221,1222,1223,1224,1225,1226,1227,1228,1229,1230,1231,1232,1233,1234,1235,1236,1237,1238,1239,1240,1241,1242,1243,1244,1245,1246,1247,1248,1249,1250,1251,1252,1253,1254,1255,1256,1257,1258,1259,1260,1261,1262,1263,1264,1265,1266,1267,1268,1269,1270,1271,1272,1273,1274,1275,1276,1277,1278,1279,1280,1281,1282,1283,1284,1285,1286,1287,1288,1289,1290,1291,1292,1293,1294,1295,1296,1297,1298,1299,1300,1301,1302,1303,1304,1305,1306,1307,1308,1309,1310,1311,1312,1313,1314,1315,1316,1317,1318,1319,1320,1321,1322,1323,1324,1325,1326,1327,1328,1329,1330,1331,1332,1333,1334,1335,1336,1337,1338,1339,1340,1341,1342,1343,1344,1345,1346,1347,1348,1349,1350,1351,1352,1353,1354,1355,1356,1357,1358,1359,1360,1361,1362,1363,1364,1365,1366,1367,1368,1369,1370,1371,1372,1373,1374,1375,1376,1377,1378,1379,1380,1381,1382,1383,1384,1385,1386,1387,1388,1389,1390,1391,1392,1393,1394,1395,1396,1397,1398,1399,1400,1401,1402,1403,1404,1405,1406,1407,1408,1409,1410,1411,1412,1413,1414,1415,1416,1417,1418,1419,1420,1421,1422,1423,1424,1425,1426,1427,1428,1429,1430,1431,1432,1433,1434,1435,1436,1437,1438,1439,1440,1441,1442,1443,1444,1445,1446,1447,1448,1449,1450,1451,1452,1453,1454,1455,1456,1457,1458,1459,1460,1461,1462,1463,1464,1465,1466,1467,1468,1469,1470,1471,1472,1473,1474,1475,1476,1477,1478,1479,1480,1481,1482,1483,1484,1485,1486,1487,1488,1489,1490,1491,1492,1493,1494,1495,1496,1497,1498,1499,1500,1501,1502,1503,1504,1505,1506,1507,1508,1509,1510,1511,1512,1513,1514,1515,1516,1517,1518,1519,1520,1521,1522,1523,1524,1525,1526,1527,1528,1529,1530,1531,1532,1533,1534,1535,1536,1537,1538,1539,1540,1541,1542,1543,1544,1545,1546,1547,1548,1549,1550,1551,1552,1553,1554,1555,1556,1557,1558,1559,1560,1561,1562,1563,1564,1565,1566,1567,1568,1569,1570,1571,1572,1573,1574,1575,1576,1577,1578,1579,1580,1581,1582,1583,1584,1585,1586,1587,1588,1589,1590,1591,1592,1593,1594,1595,1596,1597,1598,1599,1600,1601,1602,1603,1604,1605,1606,1607,1608,1609,1610,1611,1612,1613,1614,1615,1616,1617,1618,1619,1620,1621,1622,1623,1624,1625,1626,1627,1628,1629,1630,1631,1632,1633,1634,1635,1636,1637,1638,1639,1640,1641,1642,1643,1644,1645,1646,1647,1648,1649,1650,1651,1652,1653,1654,1655,1656,1657,1658,1659,1660,1661,1662,1663,1664,1665,1666,1667,1668,1669,1670,1671,1672,1673,1674,1675,1676,1677,1678,1679,1680,1681,1682,1683,1684,1685,1686,1687,1688,1689,1690,1691,1692,1693,1694,1695,1696,1697,1698,1699,1700,1701,1702,1703,1704,1705,1706,1707,1708,1709,1710,1711,1712,1713,1714,1715,1716,1717,1718,1719,1720,1721,1722,1723,1724,1725,1726,1727,1728,1729,1730,1731,1732,1733,1734,1735,1736,1737,1738,1739,1740,1741,1742,1743,1744,1745,1746,1747,1748,1749,1750,1751,1752,1753,1754,1755,1756,1757,1758,1759,1760,1761,1762,1763,1764,1765,1766,1767,1768,1769,1770,1771,1772,1773,1774,1775,1776,1777,1778,1779,1780,1781,1782,1783,1784,1785,1786,1787,1788,1789,1790,1791,1792,1793,1794,1795,1796,1797,1798,1799,1800,1801,1802,1803,1804,1805,1806,1807,1808,1809,1810,1811,1812,1813,1814,1815,1816,1817,1818,1819,1820,1821,1822,1823,1824,1825,1826,1827,1828,1829,1830,1831,1832,1833,1834,1835,1836,1837,1838,1839,1840,1841,1842,1843,1844,1845,1846,1847,1848,1849,1850,1851,1852,1853,1854,1855,1856,1857,1858,1859,1860,1861,1862,1863,1864,1865,1866,1867,1868,1869,1870,1871,1872,1873,1874,1875,1876,1877,1878,1879,1880,1881,1882,1883,1884,1885,1886,1887,1888,1889,1890,1891,1892,1893,1894,1895,1896,1897,1898,1899,1900,1901,1902,1903,1904,1905,1906,1907,1908,1909,1910,1911,1912,1913,1914,1915,1916,1917,1918,1919,1920,1921,1922,1923,1924,1925,1926,1927,1928,1929,1930,1931,1932,1933,1934,1935,1936,1937,1938,1939,1940,1941,1942,1943,1944,1945,1946,1947,1948,1949,1950,1951,1952,1953,1954,1955,1956,1957,1958,1959,1960,1961,1962,1963,1964,1965,1966,1967,1968,1969,1970,1971,1972,1973,1974,1975,1976,1977,1978,1979,1980,1981,1982,1983,1984,1985,1986,1987,1988,1989,1990,1991,1992,1993,1994,1995,1996,1997,1998,1999,2000,2001,2002,2003,2004,2005,2006,2007,2008,2009,2010,2011,2012,2013,2014,2015,2016,2017,2018,2019,2020,2021,2022,2023,2024,2025,2026,2027,2028,2029,2030,2031,2032,2033,2034,2035,2036,2037,2038,2039,2040,2041,2042,2043,2044,2045,2046,2047,2048,2049,2050,2051,2052,2053,2054,2055,2056,2057,2058,2059,2060,2061,2062,2063,2064,2065,2066,2067,2068,2069,2070,2071,2072,2073,2074,2075,2076,2077,2078,2079,2080,2081,2082,2083,2084,2085,2086,2087,2088,2089,2090,2091,2092,2093,2094,2095,2096,2097,2098,2099,2100,2101,2102,2103,2104,2105,2106,2107,2108,2109,2110,2111,2112,2113,2114,2115,2116,2117,2118,2119,2120,2121,2122,2123,2124,2125,2126,2127,2128,2129,2130,2131,2132,2133,2134,2135,2136,2137,2138,2139,2140,2141,2142,2143,2144,2145,2146,2147,2148,2149,2150,2151,2152,2153,2154,2155,2156,2157,2158,2159,2160,2161,2162,2163,2164,2165,2166,2167,2168,2169,2170,2171,2172,2173,2174,2175,2176,2177,2178,2179,2180,2181,2182,2183,2184,2185,2186,2187,2188,2189,2190,2191,2192,2193,2194,2195,2196,2197,2198,2199,2200,2201,2202,2203,2204,2205,2206,2207,2208,2209,2210,2211,2212,2213,2214,2215,2216,2217,2218,2219,2220,2221,2222,2223,2224,2225,2226,2227,2228,2229,2230,2231,2232,2233,2234,2235,2236,2237,2238,2239,2240,2241,2242,2243,2244,2245,2246,2247,2248,2249,2250,2251,2252,2253,2254,2255,2256,2257,2258,2259,2260,2261,2262,2263,2264,2265,2266,2267,2268,2269,2270,2271,2272,2273,2274,2275,2276,2277,2278,2279,2280,2281,2282,2283,2284,2285,2286,2287,2288,2289,2290,2291,2292,2293,2294,2295,2296,2297,2298,2299,2300,2301,2302,2303,2304,2305,2306,2307,2308,2309,2310,2311,2312,2313,2314,2315,2316,2317,2318,2319,2320,2321,2322,2323,2324,2325,2326,2327,2328,2329,2330,2331,2332,2333,2334,2335,2336,2337,2338,2339,2340,2341,2342,2343,2344,2345,2346,2347,2348,2349,2350,2351,2352,2353,2354,2355,2356,2357,2358,2359,2360,2361,2362,2363,2364,2365,2366,2367,2368,2369,2370,2371,2372,2373,2374,2375,2376,2377,2378,2379,2380,2381,2382,2383,2384,2385,2386,2387,2388,2389,2390,2391,2392,2393,2394,2395,2396,2397,2398,2399,2400,2401,2402,2403,2404,2405,2406,2407,2408,2409,2410,2411,2412,2413,2414,2415,2416,2417,2418,2419,2420,2421,2422,2423,2424,2425,2426,2427,2428,2429,2430,2431,2432,2433,2434,2435,2436,2437,2438,2439,2440,2441,2442,2443,2444,2445,2446,2447,2448,2449,2450,2451,2452,2453,2454,2455,2456,2457,2458,2459,2460,2461,2462,2463,2464,2465,2466,2467,2468,2469,2470,2471,2472,2473,2474,2475,2476,2477,2478,2479,2480,2481,2482,2483,2484,2485,2486,2487,2488,2489,2490,2491,2492,2493,2494,2495,2496,2497,2498,2499,2500,2501,2502,2503,2504,2505,2506,2507,2508,2509,2510,2511,2512,2513,2514,2515,2516,2517,2518,2519,2520,2521,2522,2523,2524,2525,2526,2527,2528,2529,2530,2531,2532,2533,2534,2535,2536,2537,2538,2539,2540,2541,2542,2543,2544,2545,2546,2547,2548,2549,2550,2551,2552,2553,2554,2555,2556,2557,2558,2559,2560,2561,2562,2563,2564,2565,2566,2567,2568,2569,2570,2571,2572,2573,2574,2575,2576,2577,2578,2579,2580,2581,2582,2583,2584,2585,2586,2587,2588,2589,2590,2591,2592,2593,2594,2595,2596,2597,2598,2599,2600,2601,2602,2603,2604,2605,2606,2607,2608,2609,2610,2611,2612,2613,2614,2615,2616,2617,2618,2619,2620,2621,2622,2623,2624,2625,2626,2627,2628,2629,2630,2631,2632,2633,2634,2635,2636,2637,2638,2639,2640,2641,2642,2643,2644,2645,2646,2647,2648,2649,2650,2651,2652,2653,2654,2655,2656,2657,2658,2659,2660,2661,2662,2663,2664,2665,2666,2667,2668,2669,2670,2671,2672,2673,2674,2675,2676,2677,2678,2679,2680,2681,2682,2683,2684,2685,2686,2687,2688,2689,2690,2691,2692,2693,2694,2695,2696,2697,2698,2699,2700,2701,2702,2703,2704,2705,2706,2707,2708,2709,2710,2711,2712,2713,2714,2715,2716,2717,2718,2719,2720,2721,2722,2723,2724,2725,2726,2727,2728,2729,2730,2731,2732,2733,2734,2735,2736,2737,2738,2739,2740,2741,2742,2743,2744,2745,2746,2747,2748,2749,2750,2751,2752,2753,2754,2755,2756,2757,2758,2759,2760,2761,2762,2763,2764,2765,2766,2767,2768,2769,2770,2771,2772,2773,2774,2775,2776,2777,2778,2779,2780,2781,2782,2783,2784,2785,2786,2787,2788,2789,2790,2791,2792,2793,2794,2795,2796,2797,2798,2799,2800,2801,2802,2803,2804,2805,2806,2807,2808,2809,2810,2811,2812,2813,2814,2815,2816,2817,2818,2819,2820,2821,2822,2823,2824,2825,2826,2827,2828,2829,2830,2831,2832,2833,2834,2835,2836,2837,2838,2839,2840,2841,2842,2843,2844,2845,2846,2847,2848,2849,2850,2851,2852,2853,2854,2855,2856,2857,2858,2859,2860,2861,2862,2863,2864,2865,2866,2867,2868,2869,2870,2871,2872,2873,2874,2875,2876,2877,2878,2879,2880,2881,2882,2883,2884,2885,2886,2887,2888,2889,2890,2891,2892,2893,2894,2895,2896,2897,2898,2899,2900,2901,2902,2903,2904,2905,2906,2907,2908,2909,2910,2911,2912,2913,2914,2915,2916,2917,2918,2919,2920,2921,2922,2923,2924,2925,2926,2927,2928,2929,2930,2931,2932,2933,2934,2935,2936,2937,2938,2939,2940,2941,2942,2943,2944,2945,2946,2947,2948,2949,2950,2951,2952,2953,2954,2955,2956,2957,2958,2959,2960,2961,2962,2963,2964,2965,2966,2967,2968,2969,2970,2971,2972,2973,2974,2975,2976,2977,2978,2979,2980,2981,2982,2983,2984,2985,2986,2987,2988,2989,2990,2991,2992,2993,2994,2995,2996,2997,2998,2999,3000,3001,3002,3003,3004,3005,3006,3007,3008,3009,3010,3011,3012,3013,3014,3015,3016,3017,3018,3019,3020,3021,3022,3023,3024,3025,3026,3027,3028,3029,3030,3031,3032,3033,3034,3035,3036,3037,3038,3039,3040,3041,3042,3043,3044,3045,3046,3047,3048,3049,3050,3051,3052,3053,3054,3055,3056,3057,3058,3059,3060,3061,3062,3063,3064,3065,3066,3067,3068,3069,3070,3071,3072,3073,3074,3075,3076,3077,3078,3079,3080,3081,3082,3083,3084,3085,3086,3087,3088,3089,3090,3091,3092,3093,3094,3095,3096,3097,3098,3099,3100,3101,3102,3103,3104,3105,3106,3107,3108,3109,3110,3111,3112,3113,3114,3115,3116,3117,3118,3119,3120,3121,3122,3123,3124,3125,3126,3127,3128,3129,3130,3131,3132,3133,3134,3135,3136,3137,3138,3139,3140,3141,3142,3143,3144,3145,3146,3147,3148,3149,3150,3151,3152,3153,3154,3155,3156,3157,3158,3159,3160,3161,3162,3163,3164,3165,3166,3167,3168,3169,3170,3171,3172,3173,3174,3175,3176,3177,3178,3179,3180,3181,3182,3183,3184,3185,3186,3187,3188,3189,3190,3191,3192,3193,3194,3195,3196,3197,3198,3199,3200,3201,3202,3203,3204,3205,3206,3207,3208,3209,3210,3211,3212,3213,3214,3215,3216,3217,3218,3219,3220,3221,3222,3223,3224,3225,3226,3227,3228,3229,3230,3231,3232,3233,3234,3235,3236,3237,3238,3239,3240,3241,3242,3243,3244,3245,3246,3247,3248,3249,3250,3251,3252,3253,3254,3255,3256,3257,3258,3259,3260,3261,3262,3263,3264,3265,3266,3267,3268,3269,3270,3271,3272,3273,3274,3275,3276,3277,3278,3279,3280,3281,3282,3283,3284,3285,3286,3287,3288,3289,3290,3291,3292,3293,3294,3295,3296,3297,3298,3299,3300,3301,3302,3303,3304,3305,3306,3307,3308,3309,3310,3311,3312,3313,3314,3315,3316,3317,3318,3319,3320,3321,3322,3323,3324,3325,3326,3327,3328,3329,3330,3331,3332,3333,3334,3335,3336,3337,3338,3339,3340,3341,3342,3343,3344,3345,3346,3347,3348,3349,3350,3351,3352,3353,3354,3355,3356,3357,3358,3359,3360,3361,3362,3363,3364,3365,3366,3367,3368,3369,3370,3371,3372,3373,3374,3375,3376,3377,3378,3379,3380,3381,3382,3383,3384,3385,3386,3387,3388,3389,3390,3391,3392,3393,3394,3395,3396,3397,3398,3399,3400,3401,3402,3403,3404,3405,3406,3407,3408,3409,3410,3411,3412,3413,3414,3415,3416,3417,3418,3419,3420,3421,3422,3423,3424,3425,3426,3427,3428,3429,3430,3431,3432,3433,3434,3435,3436,3437,3438,3439,3440,3441,3442,3443,3444,3445,3446,3447,3448,3449,3450,3451,3452,3453,3454,3455,3456,3457,3458,3459,3460,3461,3462,3463,3464,3465,3466,3467,3468,3469,3470,3471,3472,3473,3474,3475,3476,3477,3478,3479,3480,3481,3482,3483,3484,3485,3486,3487,3488,3489,3490,3491,3492,3493,3494,3495,3496,3497,3498,3499,3500,3501,3502,3503,3504,3505,3506,3507,3508,3509,3510,3511,3512,3513,3514,3515,3516,3517,3518,3519,3520,3521,3522,3523,3524,3525,3526,3527,3528,3529,3530,3531,3532,3533,3534,3535,3536,3537,3538,3539,3540,3541,3542,3543,3544,3545,3546,3547,3548,3549,3550,3551,3552,3553,3554,3555,3556,3557,3558,3559,3560,3561,3562,3563,3564,3565,3566,3567,3568,3569,3570,3571,3572,3573,3574,3575,3576,3577,3578,3579,3580,3581,3582,3583,3584,3585,3586,3587,3588,3589,3590,3591,3592,3593,3594,3595,3596,3597,3598,3599,3600,3601,3602,3603,3604,3605,3606,3607,3608,3609,3610,3611,3612,3613,3614,3615,3616,3617,3618,3619,3620,3621,3622,3623,3624,3625,3626,3627,3628,3629,3630,3631,3632,3633,3634,3635,3636,3637,3638,3639,3640,3641,3642,3643,3644,3645,3646,3647,3648,3649,3650,3651,3652,3653,3654,3655,3656,3657,3658,3659,3660,3661,3662,3663,3664,3665,3666,3667,3668,3669,3670,3671,3672,3673,3674,3675,3676,3677,3678,3679,3680,3681,3682,3683,3684,3685,3686,3687,3688,3689,3690,3691,3692,3693,3694,3695,3696,3697,3698,3699,3700,3701,3702,3703,3704,3705,3706,3707,3708,3709,3710,3711,3712,3713,3714,3715,3716,3717,3718,3719,3720,3721,3722,3723,3724,3725,3726,3727,3728,3729,3730,3731,3732,3733,3734,3735,3736,3737,3738,3739,3740,3741,3742,3743,3744,3745,3746,3747,3748,3749,3750,3751,3752,3753,3754,3755,3756,3757,3758,3759,3760,3761,3762,3763,3764,3765,3766,3767,3768,3769,3770,3771,3772,3773,3774,3775,3776,3777,3778,3779,3780,3781,3782,3783,3784,3785,3786,3787,3788,3789,3790,3791,3792,3793,3794,3795,3796,3797,3798,3799,3800,3801,3802,3803,3804,3805,3806,3807,3808,3809,3810,3811,3812,3813,3814,3815,3816,3817,3818,3819,3820,3821,3822,3823,3824,3825,3826,3827,3828,3829,3830,3831,3832,3833,3834,3835,3836,3837,3838,3839,3840,3841,3842,3843,3844,3845,3846,3847,3848,3849,3850,3851,3852,3853,3854,3855,3856,3857,3858,3859,3860,3861,3862,3863,3864,3865,3866,3867,3868,3869,3870,3871,3872,3873,3874,3875,3876,3877,3878,3879,3880,3881,3882,3883,3884,3885,3886,3887,3888,3889,3890,3891,3892,3893,3894,3895,3896,3897,3898,3899,3900,3901,3902,3903,3904,3905,3906,3907,3908,3909,3910,3911,3912,3913,3914,3915,3916,3917,3918,3919,3920,3921,3922,3923,3924,3925,3926,3927,3928,3929,3930,3931,3932,3933,3934,3935,3936,3937,3938,3939,3940,3941,3942,3943,3944,3945,3946,3947,3948,3949,3950,3951,3952,3953,3954,3955,3956,3957,3958,3959,3960,3961,3962,3963,3964,3965,3966,3967,3968,3969,3970,3971,3972,3973,3974,3975,3976,3977,3978,3979,3980,3981,3982,3983,3984,3985,3986,3987,3988,3989,3990,3991,3992,3993,3994,3995,3996,3997,3998,3999,4000,4001,4002,4003,4004,4005,4006,4007,4008,4009,4010,4011,4012,4013,4014,4015,4016,4017,4018,4019,4020,4021,4022,4023,4024,4025,4026,4027,4028,4029,4030,4031,4032,4033,4034,4035,4036,4037,4038,4039,4040,4041,4042,4043,4044,4045,4046,4047,4048,4049,4050,4051,4052,4053,4054,4055,4056,4057,4058,4059,4060,4061,4062,4063,4064,4065,4066,4067,4068,4069,4070,4071,4072,4073,4074,4075,4076,4077,4078,4079,4080,4081,4082,4083,4084,4085,4086,4087,4088,4089,4090,4091,4092,4093,4094,4095,4096,4097,4098,4099,4100,4101,4102,4103,4104,4105,4106,4107,4108,4109,4110,4111,4112,4113,4114,4115,4116,4117,4118,4119,4120,4121,4122,4123,4124,4125,4126,4127,4128,4129,4130,4131,4132,4133,4134,4135,4136,4137,4138,4139,4140,4141,4142,4143,4144,4145,4146,4147,4148,4149,4150,4151,4152,4153,4154,4155,4156,4157,4158,4159,4160,4161,4162,4163,4164,4165,4166,4167,4168,4169,4170,4171,4172,4173,4174,4175,4176,4177,4178,4179,4180,4181,4182,4183,4184,4185,4186,4187,4188,4189,4190,4191,4192,4193,4194,4195,4196,4197,4198,4199,4200,4201,4202,4203,4204,4205,4206,4207,4208,4209,4210,4211,4212,4213,4214,4215,4216,4217,4218,4219,4220,4221,4222,4223,4224,4225,4226,4227,4228,4229,4230,4231,4232,4233,4234,4235,4236,4237,4238,4239,4240,4241,4242,4243,4244,4245,4246,4247,4248,4249,4250,4251,4252,4253,4254,4255,4256,4257,4258,4259,4260,4261,4262,4263,4264,4265,4266,4267,4268,4269,4270,4271,4272,4273,4274,4275,4276,4277,4278,4279,4280,4281,4282,4283,4284,4285,4286,4287,4288,4289,4290,4291,4292,4293,4294,4295,4296,4297,4298,4299,4300,4301,4302,4303,4304,4305,4306,4307,4308,4309,4310,4311,4312,4313,4314,4315,4316,4317,4318,4319,4320,4321,4322,4323,4324,4325,4326,4327,4328,4329,4330,4331,4332,4333,4334,4335,4336,4337,4338,4339,4340,4341,4342,4343,4344,4345,4346,4347,4348,4349,4350,4351,4352,4353,4354,4355,4356,4357,4358,4359,4360,4361,4362,4363,4364,4365,4366,4367,4368,4369,4370,4371,4372,4373,4374,4375,4376,4377,4378,4379,4380,4381,4382,4383,4384,4385,4386,4387,4388,4389,4390,4391,4392,4393,4394,4395,4396,4397,4398,4399,4400,4401,4402,4403,4404,4405,4406,4407,4408,4409,4410,4411,4412,4413,4414,4415,4416,4417,4418,4419,4420,4421,4422,4423,4424,4425,4426,4427,4428,4429,4430,4431,4432,4433,4434,4435,4436,4437,4438,4439,4440,4441,4442,4443,4444,4445,4446,4447,4448,4449,4450,4451,4452,4453,4454,4455,4456,4457,4458,4459,4460,4461,4462,4463,4464,4465,4466,4467,4468,4469,4470,4471,4472,4473,4474,4475,4476,4477,4478,4479,4480,4481,4482,4483,4484,4485,4486,4487,4488,4489,4490,4491,4492,4493,4494,4495,4496,4497,4498,4499,4500,4501,4502,4503,4504,4505,4506,4507,4508,4509,4510,4511,4512,4513,4514,4515,4516,4517,4518,4519,4520,4521,4522,4523,4524,4525,4526,4527,4528,4529,4530,4531,4532,4533,4534,4535,4536,4537,4538,4539,4540,4541,4542,4543,4544,4545,4546,4547,4548,4549,4550,4551,4552,4553,4554,4555,4556,4557,4558,4559,4560,4561,4562,4563,4564,4565,4566,4567,4568,4569,4570,4571,4572,4573,4574,4575,4576,4577,4578,4579,4580,4581,4582,4583,4584,4585,4586,4587,4588,4589,4590,4591,4592,4593,4594,4595,4596,4597,4598,4599,4600,4601,4602,4603,4604,4605,4606,4607,4608,4609,4610,4611,4612,4613,4614,4615,4616,4617,4618,4619,4620,4621,4622,4623,4624,4625,4626,4627,4628,4629,4630,4631,4632,4633,4634,4635,4636,4637,4638,4639,4640,4641,4642,4643,4644,4645,4646,4647,4648,4649,4650,4651,4652,4653,4654,4655,4656,4657,4658,4659,4660,4661,4662,4663,4664,4665,4666,4667,4668,4669,4670,4671,4672,4673,4674,4675,4676,4677,4678,4679,4680,4681,4682,4683,4684,4685,4686,4687,4688,4689,4690,4691,4692,4693,4694,4695,4696,4697,4698,4699,4700,4701,4702,4703,4704,4705,4706,4707,4708,4709,4710,4711,4712,4713,4714,4715,4716,4717,4718,4719,4720,4721,4722,4723,4724,4725,4726,4727,4728,4729,4730,4731,4732,4733,4734,4735,4736,4737,4738,4739,4740,4741,4742,4743,4744,4745,4746,4747,4748,4749,4750,4751,4752,4753,4754,4755,4756,4757,4758,4759,4760,4761,4762,4763,4764,4765,4766,4767,4768,4769,4770,4771,4772,4773,4774,4775,4776,4777,4778,4779,4780,4781,4782,4783,4784,4785,4786,4787,4788,4789,4790,4791,4792,4793,4794,4795,4796,4797,4798,4799,4800,4801,4802,4803,4804,4805,4806,4807,4808,4809,4810,4811,4812,4813,4814,4815,4816,4817,4818,4819,4820,4821,4822,4823,4824,4825,4826,4827,4828,4829,4830,4831,4832,4833,4834,4835,4836,4837,4838,4839,4840,4841,4842,4843,4844,4845,4846,4847,4848,4849,4850,4851,4852,4853,4854,4855,4856,4857,4858,4859,4860,4861,4862,4863,4864,4865,4866,4867,4868,4869,4870,4871,4872,4873,4874,4875,4876,4877,4878,4879,4880,4881,4882,4883,4884,4885,4886,4887,4888,4889,4890,4891,4892,4893,4894,4895,4896,4897,4898,4899,4900,4901,4902,4903,4904,4905,4906,4907,4908,4909,4910,4911,4912,4913,4914,4915,4916,4917,4918,4919,4920,4921,4922,4923,4924,4925,4926,4927,4928,4929,4930,4931,4932,4933,4934,4935,4936,4937,4938,4939,4940,4941,4942,4943,4944,4945,4946,4947,4948,4949,4950,4951,4952,4953,4954,4955,4956,4957,4958,4959,4960,4961,4962,4963,4964,4965,4966,4967,4968,4969,4970,4971,4972,4973,4974,4975,4976,4977,4978,4979,4980,4981,4982,4983,4984,4985,4986,4987,4988,4989,4990,4991,4992,4993,4994,4995,4996,4997,4998,4999
45.0,141.04,196.24,111.89999999999999,278.08,170.54999999999998,195.25,281.09999999999997,181.9,247.65,156.88,224.77,157.84,235.69,164.7,229.24,169.73999999999998,225.55,183.87,228.6,179.70000000000002,224.77,201.3,256.49,315.2,170.19,282.45,231.79000000000002,147.28,148.4,228.41,217.14000000000001,286.88,171.18,140.70000000000002,288.6,244.27,289.1,222.23999999999998,225.95999999999998,75.24,183.9,279.68,121.68,284.34000000000003,331.52,213.46,158.22,244.14000000000001,250.56,253.11,324.87,185.10000000000002,167.84,73.28,406.40000000000003,235.43,198.72,240.12,201.70000000000002,263.06,189.3,185.10000000000002,152.56,147.68,47.55,130.72,216.84,218.16,256.23,148.23,266.24,192.3,231.33,226.05,199.0,274.12,132.37,171.81,274.05,205.92,174.87,172.35,70.48,245.18,209.22,247.56,227.4,143.54999999999998,312.75,196.70000000000002,298.35,163.44,202.73,243.1,92.60000000000001,232.44,303.45000000000005,245.88,179.70000000000002,148.96,161.52,136.88,241.36,222.69,157.04,176.20000000000002,303.84000000000003,269.92,290.5,181.35,181.20000000000002,175.60000000000002,187.10000000000002,262.99,154.0,211.60000000000002,251.3,249.90000000000003,273.76,174.60000000000002,172.20000000000002,231.01000000000002,59.94,208.10000000000002,238.67999999999998,174.15,233.04,302.08,179.70000000000002,251.86,164.60999999999999,286.65,201.08,207.68,204.72,145.76,200.4,221.65,203.28,177.65,221.76,201.5,241.2,270.45,74.72,347.31,199.3,216.95999999999998,127.05000000000001,460.69,186.3,181.44,184.70000000000002,143.04,255.97,199.5,188.37,258.86,159.52,248.17000000000002,166.41,133.63000000000002,159.76,131.60000000000002,269.08000000000004,231.23999999999998,146.16,294.14000000000004,246.35999999999999,261.9,250.25,129.64000000000001,239.16,206.91,228.58,198.10000000000002,154.48,200.0,187.70000000000002,163.17,93.7,116.69000000000001,239.40000000000003,123.41000000000001,245.00000000000003,137.97000000000003,326.40000000000003,110.22,287.14000000000004,199.0,225.35999999999999,136.15,247.0,187.60000000000002,203.51999999999998,125.65,161.46,146.24,119.1,378.84,258.36,168.84,238.55,223.86,184.59,251.39999999999998,116.52,190.3,193.16,129.84,155.20000000000002,52.89,287.55,112.5,149.76,232.1,172.08,203.72,195.70000000000002,129.29000000000002,298.24,167.48999999999998,139.58,220.56,294.45,187.0,292.18,111.0,179.5,184.4,201.63,121.61999999999999,125.76,240.48,314.08,143.6,188.9,317.05,293.55,343.97999999999996,284.20000000000005,182.8,196.02,134.82000000000002,81.95,134.47,191.60000000000002,164.79,234.48,225.17,187.79999999999998,139.44,150.96,196.32,86.9,284.48,230.62,242.62000000000003,121.04,174.51,171.26999999999998,232.05,242.90000000000003,181.17,265.58000000000004,229.9,146.79000000000002,160.72,288.8,190.85,154.32,181.89,189.8,196.3,336.59999999999997,200.86,152.56,78.88,190.5,199.1,172.10000000000002,92.2,156.88,142.8,142.10999999999999,144.41000000000003,256.90000000000003,160.10000000000002,239.33,163.04,247.39000000000001,255.29999999999998,221.88,172.3,121.92,246.35,290.09999999999997,215.76,165.23999999999998,222.69,141.52,210.87,209.88,152.16,317.7,205.59,174.0,135.73000000000002,167.31,183.04,270.48,204.0,179.01,349.74,234.0,131.04000000000002,192.17,252.28000000000003,193.82,174.20000000000002,219.56,199.1,115.25999999999999,183.3,138.53,211.5,144.81,211.53,296.48,144.69000000000003,202.29,156.48,172.79999999999998,176.8,135.87,205.37,259.09000000000003,269.36,180.09,185.67,203.06,139.12,133.84,148.72,123.97000000000001,221.16,224.4,176.4,205.5,223.08,236.76,165.6,205.81,163.98,127.12000000000002,275.09999999999997,160.08,100.2,287.25,218.28,263.76000000000005,188.87,158.48,278.7,285.46000000000004,183.51,161.73,223.56,184.9,167.94,208.10000000000002,162.54,285.6,54.69,238.2,310.25,245.64,194.37,122.94,251.42000000000002,189.0,244.2,244.44,253.68000000000004,243.74,232.96,183.20000000000002,185.4,210.43,107.94,130.34,210.43,270.0,273.0,356.82,144.4,147.44,117.67000000000002,282.38000000000005,155.84,266.70000000000005,235.95000000000002,232.96,293.44,222.64000000000001,298.95,244.27,236.47,223.32,142.08,189.5,173.3,191.4,234.6,115.25999999999999,149.04,164.25,134.16,116.27000000000001,341.19,183.10000000000002,152.08,137.97,99.15,160.72,176.60000000000002,182.79,134.05,322.38,303.84000000000003,287.55,162.45,219.34,101.75999999999999,209.55,221.4,257.03999999999996,178.68,73.2,135.63,227.37,290.84999999999997,164.60999999999999,172.26,212.76,183.60000000000002,208.44,136.01000000000002,240.6,314.4,217.07999999999998,190.85,282.59999999999997,132.08,203.61,210.60000000000002,250.64000000000001,162.9,276.0,176.48999999999998,181.3,191.3,180.70000000000002,254.88,278.04,173.7,171.45,127.47000000000001,202.29,308.04,158.24,216.0,203.10000000000002,161.37,153.6,120.47000000000001,257.18,212.3,294.14000000000004,223.96,212.51999999999998,311.84000000000003,196.46,156.48,152.4,285.6,161.44,216.92,304.5,179.9,163.36,161.12,238.81,266.63,257.27,189.3,228.28,173.43,210.1,192.79000000000002,54.9,168.4,231.0,264.03000000000003,152.72,114.31000000000002,220.2,72.52,146.48,293.84999999999997,317.39000000000004,152.0,172.17,187.70000000000002,245.44,224.62,186.60000000000002,164.5,161.9,207.79,163.17,277.34000000000003,194.37,236.39999999999998,181.35,161.20000000000002,205.59,252.07000000000002,150.96,169.56,187.11,157.68,92.85000000000001,177.84,226.93,345.61,153.09,164.07,226.44,312.46000000000004,209.88,197.9,310.05,138.96,157.68,111.42,203.9,55.47,232.92,253.11,236.16,173.60999999999999,214.67999999999998,259.22,262.95,182.97,154.35,380.6,310.56,170.45999999999998,231.99,188.0,187.9,209.99,219.96,351.69,199.98,239.40000000000003,173.51999999999998,158.08,255.45000000000002,220.07999999999998,155.84,200.09,159.75,205.32,210.20000000000002,180.70000000000002,338.58,234.26000000000002,140.07000000000002,228.72,308.96,131.53,206.36,175.10000000000002,180.9,203.17,257.66,287.09999999999997,194.8,233.39999999999998,180.63,264.55,129.71,206.3,152.96,224.76,156.96,125.44000000000001,137.92000000000002,262.78000000000003,163.84,234.48,305.84999999999997,173.43,223.2,251.03,201.5,202.07,192.5,295.2,235.43,214.83,251.68,123.27000000000001,185.5,148.72,201.19,210.6,148.88,170.01,241.95,213.73,212.28,159.03,155.12,232.57000000000002,276.9,257.66,220.44,247.13,152.32,147.44,256.75,158.64000000000001,124.53000000000002,346.12,272.58000000000004,183.81,193.10000000000002,160.47,267.82000000000005,133.77,174.8,128.31,247.91,174.06,194.76,205.15,133.77,263.38,181.17,111.53999999999999,166.60000000000002,193.9,222.64000000000001,289.12,368.46,193.93,228.8,100.61999999999999,150.72,276.36,191.29,219.05,131.81,174.69,225.84,235.56,219.56,328.32,197.89000000000001,184.69,264.45,187.5,190.8,238.79999999999998,199.65,140.49,219.89000000000001,136.43,198.5,230.76,216.15,136.5,140.76,258.02000000000004,297.36,237.44000000000003,143.6,250.79999999999998,203.94,250.51000000000002,111.36,176.31,180.54,264.18,275.09999999999997,224.28,98.75999999999999,191.73,296.7,126.49000000000001,182.49,282.66,283.78000000000003,201.3,325.76,319.04,242.71,314.08,208.12,216.12,168.12,237.0,319.65,145.92000000000002,173.79,168.84,239.33,167.31,98.22,146.32,218.79000000000002,213.18,294.28000000000003,164.56,237.77,240.66000000000003,222.6,206.47,132.51000000000002,219.56,259.05,252.33,254.76,120.61000000000001,164.7,131.39000000000001,282.9,219.0,192.10000000000002,197.64,163.10000000000002,180.45,176.67,84.10000000000001,138.64000000000001,209.55,247.66000000000003,154.8,200.53,145.71,298.95,254.25,84.60000000000001,146.34,246.48,193.4,117.25000000000001,204.5,256.44,163.68,160.72,109.86,273.14000000000004,138.60000000000002,240.5,267.59999999999997,191.20000000000002,152.16,121.5,216.12,176.22,197.0,278.88,167.4,231.23999999999998,414.6,227.89000000000001,249.90000000000003,222.56,295.05,175.20000000000002,203.88,119.35000000000001,146.0,82.15,195.03,225.6,138.25,264.45,217.92,169.20000000000002,207.9,272.55,163.53,289.68,171.72,334.26,168.03,277.76000000000005,193.9,224.51000000000002,214.5,152.64000000000001,214.92,147.44,261.59999999999997,330.88,253.26000000000002,288.64,195.91,219.56,161.5,192.20000000000002,216.35999999999999,172.26,159.93,128.45000000000002,140.48,188.70000000000002,145.67000000000002,199.70000000000002,216.12,157.76999999999998,164.07,294.84000000000003,157.95,251.81,167.67,240.72,232.92,270.34000000000003,226.85,222.64000000000001,376.38,94.75,144.48,242.88,222.42,153.9,265.2,100.75,197.67,225.72,268.1,74.12,98.35000000000001,251.03,159.44,163.92000000000002,190.9,222.86,144.24,243.95999999999998,277.12,304.34999999999997,238.79999999999998,140.14000000000001,176.04,252.59,211.20000000000002,285.92,323.17,111.0,300.64,218.79000000000002,319.52,265.02000000000004,183.48,239.88,206.9,126.21000000000001,163.79999999999998,171.26999999999998,210.1,208.56,206.51999999999998,219.67,193.04999999999998,236.99,155.25,134.4,154.44,146.96,252.14999999999998,259.22,314.67,204.93,225.35999999999999,161.28,226.79999999999998,242.06,214.92,204.27,232.2,216.6,189.09,185.3,150.93,181.70000000000002,186.3,135.44,176.67,157.36,213.35999999999999,264.9,104.64,238.16,257.92,203.61,222.6,232.2,319.04,240.5,126.21000000000001,215.6,264.55,326.56,231.72,237.28,274.12,238.2,223.34,90.35000000000001,177.4,247.13,155.04,130.64000000000001,148.88,242.34000000000003,205.10000000000002,116.16,229.88000000000002,223.44,275.1,228.95999999999998,178.9,242.97,207.68,164.43,252.59,277.8,192.20000000000002,196.10000000000002,319.94,200.97,109.61999999999999,223.21,113.46,176.67,176.08,376.77,203.3,105.66,198.0,200.2,130.41000000000003,303.79,218.79,221.48000000000002,204.93,226.71,166.16,241.67000000000002,185.57,193.79999999999998,154.53,345.27000000000004,199.4,233.04,203.17,116.20000000000002,219.01,156.56,183.3,255.45,203.17,201.23999999999998,167.76,130.32,110.16,114.0,122.94,241.56,229.97,224.29,300.15,210.98,246.61,209.0,208.67,102.0,192.28,245.18,258.36,271.32000000000005,211.2,145.28,145.6,208.56,225.72,182.3,183.8,187.10000000000002,257.18,334.97,143.22000000000003,244.27,204.71,169.3,193.27,209.28,102.42,113.33999999999999,205.15,287.52,241.67000000000002,167.76,160.47,153.44,169.62,200.53,235.51,219.35999999999999,201.4,202.4,142.72,130.55,191.60000000000002,290.36,233.38000000000002,184.60000000000002,244.66,266.70000000000005,172.60000000000002,57.449999999999996,261.82,185.04,224.51,174.10000000000002,217.36,280.5,175.41,224.51999999999998,222.12,134.64000000000001,181.98,235.82000000000002,215.05,148.85999999999999,206.91,296.32,141.76,257.27,406.41,170.1,283.05,150.72,127.12000000000002,199.4,172.98,166.32,274.95,174.5,108.6,167.76,178.20000000000002,268.5,145.84,221.51999999999998,153.26999999999998,146.72,158.31,228.35999999999999,290.25,122.75999999999999,259.87,188.98,251.64,199.21,151.38,198.77,360.53999999999996,318.41,193.5,209.69,171.8,219.89000000000001,284.25,191.07,325.89000000000004,131.25,152.8,119.33999999999999,229.13,262.08000000000004,152.01,168.0,176.76,215.16,228.02,274.54,185.70000000000002,99.5,226.05,272.72,199.21,73.2,227.4,203.28,160.47,142.73000000000002,151.12,265.76,229.56,293.09999999999997,338.0,282.59999999999997,293.28000000000003,276.9,124.95000000000002,187.70000000000002,314.40000000000003,116.69999999999999,237.51000000000002,243.1,128.66000000000003,184.70000000000002,189.8,187.5,253.11,170.91,138.56,139.5,146.72,188.76,266.14000000000004,266.25,186.67,276.32,286.95,172.70999999999998,169.82999999999998,262.22,138.53,218.4,373.83000000000004,95.7,221.65,290.40000000000003,185.9,153.20000000000002,312.63,198.77,161.73,204.49,287.36,168.03,318.42,243.46000000000004,139.72000000000003,216.48,298.72,381.8,227.76000000000002,230.51999999999998,270.34000000000003,198.44,192.61,175.5,240.11,147.04,248.39999999999998,194.13,117.66,238.42000000000002,265.02000000000004,259.98,186.20000000000002,184.4,222.53,143.20000000000002,142.72,99.30000000000001,146.56,141.19000000000003,128.24,172.53,200.70000000000002,288.99,314.88,179.28,158.4,122.78000000000002,299.04,144.97000000000003,182.4,171.26999999999998,137.68,153.35999999999999,333.54,181.4,334.24,82.76,186.03,112.00000000000001,261.0,214.32,250.12,203.64,202.07,194.37,206.3,234.72,285.45,149.12,250.74000000000004,125.93,168.39,191.18,261.75,148.72,214.28,231.79000000000002,190.5,239.39999999999998,241.28,235.79999999999998,257.46000000000004,248.82000000000002,131.12,62.07,236.21,166.04999999999998,301.21000000000004,180.98999999999998,310.8,224.64,209.77,251.86,221.65,189.86,202.62,275.7,106.02,281.68,177.48,113.7,125.2,221.21,282.75,169.82999999999998,252.98000000000002,314.72,267.26000000000005,213.07,108.11999999999999,222.12,132.16000000000003,239.85,273.98,216.48,147.52,214.17,205.07999999999998,217.58,220.56,244.58,207.12,149.13,161.28,108.78,167.31,147.12,117.3,165.87,219.84,232.44,203.28,196.35,137.06,292.0,333.28000000000003,238.68,258.83,338.3,228.67000000000002,261.66,256.34000000000003,181.17,143.43,219.78,153.68,127.4,162.54,234.39000000000001,179.01,215.02,277.34999999999997,228.6,173.97,129.92000000000002,105.36,95.55000000000001,229.07999999999998,196.57,230.28,127.96000000000001,162.9,246.09,192.10000000000002,183.5,199.79999999999998,209.4,119.56000000000002,149.20000000000002,300.9,198.99,199.10000000000002,272.55,189.4,186.60000000000002,160.10999999999999,181.20000000000002,291.36,215.82,220.2,215.27,292.65,278.46000000000004,152.46,210.21,171.0,223.19,174.8,179.10000000000002,103.02,184.10000000000002,105.11999999999999,231.23999999999998,132.23000000000002,258.7,221.51999999999998,209.28,277.76000000000005,152.24,110.16,229.32,181.35,190.97,226.2,217.67999999999998,217.69,284.64,148.32,104.60000000000001,322.15000000000003,161.82,112.02,110.04,201.23999999999998,142.64000000000001,279.86,142.24,321.28000000000003,176.60000000000002,290.84999999999997,54.57,166.41,265.59000000000003,209.0,237.35999999999999,191.5,150.1,290.08000000000004,126.63000000000001,124.95000000000002,98.4,180.63,228.84,170.54999999999998,94.85000000000001,204.93,228.15,281.28000000000003,152.64000000000001,107.1,239.39999999999998,169.29,154.8,243.88,202.10000000000002,225.0,265.46000000000004,267.68,90.0,166.8,141.75,206.25,198.95999999999998,120.96,222.69,228.8,204.27,186.5,234.89999999999998,195.0,204.27,78.88,293.44000000000005,142.8,123.76,214.06,212.63,135.12,173.52,203.39000000000001,178.38,260.65000000000003,112.44,250.9,246.61,198.99,144.4,165.32999999999998,120.82000000000001,223.63,175.60000000000002,186.60000000000002,252.33,310.24,220.77,224.88,255.71,295.2,247.79999999999998,318.41,208.56,239.07000000000002,206.8,152.48,295.8,159.21,116.46,185.60000000000002,144.48,252.14000000000001,220.22,221.64,218.68,169.20000000000002,131.39000000000001,319.8,161.52,336.6,163.52,265.44,278.4,148.24,166.14,147.92000000000002,192.70000000000002,178.60000000000002,360.81,243.88,291.45,244.79000000000002,251.51999999999998,189.0,256.49,256.36,253.76000000000002,328.48,231.48,216.95999999999998,255.0,193.71,158.48999999999998,89.85000000000001,256.75,324.8,183.3,263.64,195.9,278.6,261.66,185.24,249.99,227.63,214.56,219.84,267.26000000000005,187.5,297.44,229.32,285.45,93.25,142.16,189.81,110.7,217.2,225.6,222.97,336.26000000000005,160.64000000000001,152.96,219.01,313.65000000000003,214.32,146.48,160.92,185.0,200.0,137.36,307.97999999999996,191.10000000000002,259.56,194.59,117.72,97.65,185.22,149.04,283.64000000000004,255.58,174.20000000000002,159.5,293.44000000000005,236.04,135.10000000000002,219.23999999999998,179.91,248.95000000000002,128.17000000000002,201.19,227.16,282.94000000000005,265.86,260.82000000000005,179.5,181.35,278.46000000000004,220.67999999999998,72.60000000000001,241.67000000000002,249.48,182.97,322.66,168.03,150.8,146.4,216.12,313.05,225.72,222.48,148.72,173.43,149.44,190.9,345.06,247.78,247.39000000000001,210.43,248.85,258.58000000000004,199.43,191.70000000000002,318.24,170.54999999999998,161.37,261.82,90.45,169.9,229.46,243.72,151.04,176.22,251.03,216.12,180.5,189.20000000000002,148.48,188.5,154.48,228.23999999999998,241.32,289.44,174.69,168.0,172.53,136.01000000000002,210.4,327.08000000000004,234.12,166.41,202.9,141.44,118.93,168.75,100.05000000000001,320.76,205.56,204.20000000000002,210.72,189.4,218.79,226.6,203.83,277.76000000000005,154.62,165.96,157.32,193.82,274.12,127.19000000000001,209.10000000000002,184.3,125.79,347.03999999999996,210.43,157.04,266.88,283.05,155.28,200.53,99.60000000000001,236.08,193.9,188.5,215.6,188.28,128.60999999999999,261.69,165.23999999999998,146.0,192.70000000000002,236.88,181.10000000000002,297.9,324.71999999999997,147.68,255.22000000000003,213.29,206.25,167.94,201.10000000000002,266.98,209.22,186.70000000000002,284.84999999999997,94.05000000000001,150.8,237.3,196.9,174.20000000000002,135.2,288.16,155.12,245.42000000000002,290.4,151.76,275.66,239.72,213.95999999999998,178.38,177.75,298.06,142.32,254.15,208.67,183.48,241.44,152.24,142.73000000000002,205.37,335.58000000000004,153.63,244.01000000000002,283.5,145.36,254.16,203.61,315.2,211.31,285.6,341.64,190.79999999999998,69.16,226.07000000000002,144.4,186.3,173.16,211.42,358.56,154.62,195.5,155.79,258.3,262.34999999999997,219.84,208.3,283.68,165.96,307.36,299.52,228.95999999999998,279.3,271.18,220.99,302.94,265.86,212.85,219.67,207.48000000000002,235.92,191.10000000000002,280.95,254.67000000000002,210.12,226.71,217.47,141.4,168.66,258.86,258.48,281.55,212.76,257.27,193.93,254.1,236.47,161.6,307.95,181.83,213.73,174.23999999999998,165.44,201.4,167.31,225.94,108.53999999999999,167.13,196.02,284.84999999999997,253.68000000000004,128.8,157.23,222.0,268.05,238.56,169.38,197.3,374.11,170.5,179.0,285.32000000000005,172.17,295.52,192.3,195.48,236.08,262.47,347.58,114.11999999999999,230.34,210.21,199.70000000000002,182.43,197.10000000000002,211.75,277.28000000000003,215.71,186.5,149.84,246.48000000000002,206.8,119.39999999999999,178.29,220.48000000000002,183.70000000000002,101.65,166.95,206.76,197.01,281.54,207.79,146.24,263.62,284.96,226.49,304.05,138.53,170.01,146.4,237.9,152.28,323.25,226.07999999999998,237.72,211.86,204.48,164.34,231.35999999999999,202.4,251.42000000000002,269.08000000000004,202.73,172.70000000000002,103.8,190.41,209.44,211.31,200.5,190.9,310.8,190.85,241.08,212.76,171.5,117.24,238.42000000000002,215.70000000000002,190.08,159.9,277.06,158.31,157.85999999999999,127.05000000000001,266.89,241.07999999999998,128.52,283.95,193.8,212.85,285.32000000000005,203.70000000000002,161.73,170.4,148.08,338.01,100.74,209.11,173.97,222.09,154.08,87.5,168.8,160.08,77.36,163.35,159.21,103.97999999999999,275.68,256.34999999999997,118.19999999999999,153.68,237.9,250.35,128.60999999999999,158.96,216.15,261.3,92.2,213.84,263.64,287.70000000000005,156.69,213.18,210.87,92.15,198.99,121.38,269.64000000000004,213.98000000000002,207.79,207.68,211.79999999999998,199.9,172.10000000000002,217.56,213.51,255.50000000000003,222.6,133.91000000000003,215.16,121.17000000000002,205.10000000000002,348.67,181.17,119.46,144.56,99.42,191.20000000000002,241.93,210.95999999999998,163.44,167.9,181.0,141.76,196.20000000000002,223.08,229.2,78.72,251.51999999999998,259.09000000000003,144.0,233.88,198.60000000000002,167.57999999999998,222.23999999999998,168.12,164.32,231.84,134.64000000000001,227.16,251.1,188.60000000000002,233.51999999999998,150.48,178.38,243.49,272.61,142.72,233.48000000000002,176.57999999999998,241.67000000000002,196.24,198.60000000000002,235.67999999999998,213.84,192.10000000000002,212.4,169.2,112.5,199.32,163.0,228.48,168.60000000000002,222.31,91.65,173.25,233.35,203.3,153.68,109.08,200.3,230.67,189.5,237.12,214.79999999999998,182.16,376.2,225.48,195.3,151.6,140.64000000000001,140.98000000000002,157.36,181.3,129.01000000000002,222.31,188.20000000000002,135.68,289.34999999999997,217.56,185.70000000000002,220.2,221.1,192.9,160.47,217.07999999999998,196.4,228.12,266.70000000000005,168.39,217.58,146.4,120.66,177.03,220.2,147.28,110.11000000000001,221.88,137.97000000000003,188.70000000000002,289.12,117.81000000000002,199.3,245.98000000000002,219.23999999999998,305.44,173.16,340.51000000000005,198.20000000000002,232.56,185.9,181.53,198.9,169.84,249.08,164.60999999999999,242.97,222.97,237.3,279.16,194.3,215.28,181.35,198.99,352.92,203.83,133.07000000000002,191.60000000000002,164.97,184.5,159.92000000000002,167.31,242.28,284.09999999999997,272.25,99.35000000000001,228.12,174.51,92.55000000000001,239.51999999999998,190.9,322.08,164.51999999999998,242.04,181.5,145.53,199.81,98.55000000000001,221.70000000000002,268.66,130.48000000000002,214.92,152.96,223.32,98.7,385.32,136.96,205.26,288.48,294.56,155.8,274.5,218.35,183.70000000000002,189.60000000000002,117.24,176.0,249.21,143.20000000000002,125.37000000000002,124.39000000000001,158.70000000000002,234.84,220.2,255.06,242.19,204.38,231.53,158.32,258.83,99.15,188.4,170.20000000000002,289.12,223.19,183.10000000000002,133.9,182.51999999999998,216.7,245.64,177.5,179.54999999999998,179.85,158.88,272.02000000000004,153.09,387.03000000000003,222.95999999999998,142.38000000000002,176.4,205.3,197.9,272.58000000000004,283.05,147.76,188.65,256.90000000000003,271.34999999999997,232.83,173.16,89.05000000000001,204.20000000000002,143.78,121.45000000000002,127.12000000000002,330.84,203.4,175.95,240.10000000000002,72.68,180.60000000000002,191.70000000000002,238.26,188.8,172.5,361.95,108.3,225.39000000000001,279.75,173.07,134.26000000000002,190.70000000000002,123.9,198.33,186.9,245.00000000000003,346.75,186.70000000000002,355.81,170.19,184.70000000000002,251.68,152.37,254.94000000000003,228.84,171.54,240.5,134.08,219.0,184.4,263.25,306.51000000000005,256.90000000000003,147.12,210.98,247.8,184.14,187.3,287.25,225.72,207.13,128.94000000000003,159.29999999999998,216.12,211.09,196.13,164.70000000000002,107.22,132.86,300.3,147.52,287.98,224.04,162.9,213.5,277.2,325.6,141.05,169.47,109.14,303.52,123.76,174.6,222.35999999999999,71.16,270.06,120.54,201.3,198.12,226.2,265.2,87.25,115.99000000000001,161.19,200.3,165.42,147.52,112.2,197.9,266.56,243.6,173.79,133.92000000000002,247.26000000000002,224.18,135.6,195.10000000000002,351.90000000000003,228.15,191.10000000000002,243.0,116.88,194.37,266.0,212.63,179.64,179.96,108.17999999999999,190.3,234.84,169.29,212.63,236.16,120.53999999999999,130.55,276.48,174.23999999999998,217.8,182.5,196.60000000000002,209.70000000000002,124.39000000000001,90.60000000000001,152.96,220.77,119.58,184.20000000000002,282.59999999999997,147.44,233.38000000000002,185.3,192.3,209.70000000000002,271.18,157.76,141.19000000000003,206.91,222.6,205.04,142.38,202.4,270.3,186.93,451.40000000000003,254.54000000000002,253.82000000000002,322.40000000000003,267.28000000000003,226.27,179.19,286.88,118.74,230.51999999999998,156.88,312.15,217.67999999999998,225.72,245.05,199.76,144.08,286.40000000000003,176.55,139.37,209.99,236.16,225.83,220.35,217.69,209.55,227.51999999999998,280.28000000000003,193.0,130.48000000000002,153.04,129.43,163.44,250.9,134.16,147.68,219.0,237.48,212.64,138.46,211.2,181.20000000000002,206.28,263.67,283.65,204.82,162.81,161.91,204.82,199.54,177.9,312.15,95.80000000000001,275.04,166.14,201.48,201.96,184.10000000000002,224.04,437.69,192.10000000000002,260.12,296.52000000000004,256.65,148.47000000000003,236.04,214.5,313.31,171.5,292.88000000000005,213.18,279.44000000000005,176.57999999999998,161.0,213.29,247.56,206.16,143.68,198.70000000000002,183.4,238.2,241.2,179.9,117.25000000000001,108.15,193.60000000000002,149.20000000000002,204.6,252.14000000000001,195.60000000000002,228.14000000000001,312.45,282.72,256.48,241.92,186.70000000000002,259.14000000000004,181.62,243.36,248.04000000000002,157.41,176.20000000000002,259.8,167.31,278.46000000000004,252.98000000000002,135.03,253.24,235.32,256.76000000000005,176.8,251.02,216.58,88.15,179.01,170.01,175.32,213.62,176.85,298.95,158.22,139.37,224.28,255.14999999999998,195.36,153.84,99.42,121.66000000000001,274.2,320.16,206.25,211.97,145.20000000000002,104.94,230.16,148.75,187.5,132.37,297.12,293.55,210.47,273.14000000000004,207.9,238.29000000000002,173.25,222.42,175.68,200.53,147.28,167.57999999999998,184.8,292.86,319.68,326.7,153.04,242.62000000000003,242.45000000000002,111.11999999999999,146.96,140.64000000000001,290.78000000000003,240.48,302.88,134.47,55.89,242.58,175.60000000000002,223.92,160.4,209.88,362.9,231.01000000000002,214.10000000000002,194.9,100.45,212.3,209.16,177.8,176.10000000000002,250.2,250.46000000000004,318.88,276.92,315.36,297.28000000000003,132.86,323.68,167.60000000000002,189.97,221.4,207.02,165.69,130.55,172.89,219.78,292.05,147.12,179.01,156.0,174.20000000000002,155.52,248.08,145.6,146.72,178.9,216.35999999999999,135.31,223.34,253.89000000000001,204.16,274.65,297.9,157.32,279.72,289.44,176.20000000000002,308.25,239.51999999999998,152.96,375.82,214.83,327.04,272.58000000000004,245.05,202.73,121.52000000000001,208.67,235.07999999999998,227.11,93.15,229.79,296.55,176.0,135.03,307.05,155.79,245.88,157.68,163.26,232.07999999999998,301.56,244.07999999999998,143.08,121.17000000000002,338.72,253.32,281.12,210.9,273.70000000000005,163.71,215.41,167.8,247.52,271.57,313.5,195.9,224.64,116.97000000000001,151.84,346.97,137.69000000000003,151.92,190.4,287.42,242.90000000000003,281.12,167.31,241.56,214.39000000000001,168.48,440.88,210.21,214.5,318.75,200.16,200.09,91.4,263.25,221.51999999999998,69.32000000000001,229.32,331.74,199.32,224.73,330.24,213.73,96.65,237.12,257.6,320.94,147.76,215.93,240.84,127.60000000000001,173.25,222.82000000000002,229.79999999999998,135.87,238.28000000000003,318.88,160.96,88.7,181.5,241.67999999999998,116.03999999999999,119.58,240.52,305.84999999999997,145.20000000000002,258.83,270.62,297.75,327.78,234.95999999999998,173.5,169.0,260.26000000000005,106.44,170.73,196.2,225.72,160.32,110.33999999999999,119.82,208.56,175.68,317.25,208.2,225.48,243.75,158.9,208.89000000000001,168.48,256.1,246.6,250.64000000000001,108.42,331.16,202.67999999999998,240.35999999999999,165.9,168.41,136.08,192.94,126.00000000000001,214.06,142.56,169.65,348.08,213.51,120.3,205.79999999999998,337.5,249.99,174.02,157.14,287.42,123.83000000000001,280.05,222.53,287.0,178.9,301.92,190.4,100.44,276.16,323.52,160.38,267.8,292.8,308.64,143.04,284.62,291.0,111.47999999999999,172.35,188.70000000000002,136.57000000000002,228.6,219.23999999999998,330.03000000000003,155.44,271.31,192.8,225.39000000000001,131.95000000000002,300.64,338.01,293.93,152.48,132.02,144.06,144.96,99.84,201.8,110.25000000000001,251.81,158.16,286.05,233.64,236.25,279.9,252.98000000000002,328.14,262.36,151.47,250.77,220.48000000000002,324.32,379.26,234.35999999999999,145.6,184.8,353.40000000000003,208.01,329.76,165.87,190.70000000000002,148.4,244.53,302.4,215.71,186.10000000000002,254.38000000000002,139.09,152.24,248.39999999999998,251.58,228.47,253.26000000000002,238.42000000000002,196.9,222.6,380.19,246.72,192.5,147.28,262.08,305.76,70.76,218.68,165.68,139.09,134.47,200.64000000000001,175.76999999999998,146.32,273.3,256.20000000000005,316.03000000000003,160.48,221.32,212.74,100.45,219.23999999999998,177.9,252.59,125.65,122.85000000000001,184.5,180.0,221.76,237.84,237.6,211.53,300.45,75.88,202.44,223.86,277.34000000000003,190.41,192.10000000000002,174.32999999999998,160.08,132.02,316.03000000000003,271.46000000000004,279.63,152.37,156.48,173.79,174.78,139.76,325.0,158.57999999999998,268.38000000000005,234.13,72.68,229.71,187.20000000000002,110.22,141.52,223.92,176.76,241.93,298.95,268.38000000000005,245.57000000000002,337.86,108.17999999999999,140.48,195.47,171.45,168.75,203.5,127.82000000000001,148.32,180.98999999999998,182.88,138.16,218.4,288.75,198.23999999999998,217.56000000000003,171.45,180.29,222.31,155.92000000000002,207.95999999999998,257.14,166.43,332.64,235.43,245.88,262.86,194.5,248.56,115.08,260.54,280.5,185.13,216.15,157.04999999999998,161.10000000000002,231.23999999999998,146.93,225.72,255.45000000000002,195.3,111.36,267.40000000000003,319.52,188.54,131.52,300.3,252.6,287.09999999999997,262.08000000000004,212.5,232.5,190.41,205.04,203.83,297.92,184.70000000000002,184.70000000000002,170.19,160.2,170.10000000000002,208.23,200.20000000000002,163.89,230.76,235.44,189.86,196.3,426.51,222.64000000000001,173.10000000000002,213.84,161.20000000000002,147.76,113.64,173.16,199.10000000000002,186.70000000000002,241.56,231.0,161.19,324.71999999999997,252.72,219.89000000000001,258.31,241.07999999999998,115.61999999999999,66.52,228.48,245.28000000000003,181.53,216.92,243.23000000000002,322.02,206.4,140.72,225.81,269.09999999999997,194.7,58.169999999999995,209.82,250.92,160.65,144.41000000000003,271.46000000000004,311.36,299.84999999999997,301.24,227.88,228.6,191.10000000000002,220.55,175.9,239.59,252.70000000000002,199.21,153.36,274.54,222.64000000000001,236.99,220.74,262.65,249.21,158.48999999999998,215.71,162.45,312.12,193.71,217.2,129.36,136.88,165.87,219.56,205.3,233.51999999999998,122.57000000000001,243.1,252.98000000000002,267.82000000000005,252.07000000000002,175.5,228.69,218.13,146.58,119.77000000000001,170.8,299.09999999999997,270.48,228.6,279.58000000000004,139.28,247.91,250.67999999999998,255.97,197.08,144.09,152.4,209.70000000000002,176.8,206.8,228.6,172.44,225.55,175.04999999999998,289.51000000000005,145.6,159.20000000000002,193.79999999999998,256.36,239.72,295.52,219.23999999999998,307.04,198.3,323.82,140.07000000000002,202.32,232.31,152.88,233.86,215.05,273.0,246.22,286.72,142.64000000000001,251.28,160.38,288.15,197.70000000000002,169.10999999999999,133.77,192.17,187.10000000000002,249.23999999999998,182.7,143.52,219.45,307.04,107.22,206.47,203.3,314.72,235.56,178.8,154.48,166.23,185.02,169.82999999999998,248.69,147.92000000000002,151.28,116.82,177.0,225.48,213.46,175.70000000000002,167.76,332.8,153.81,302.08,160.72,371.52,347.94,215.64,210.76,162.24,218.68,149.84,246.74,255.75,157.59,145.53,158.96,349.79,109.97999999999999,280.05,236.51999999999998,175.41,223.63,247.10000000000002,135.68,212.52,177.39,124.74000000000001,290.87,199.43,204.3,220.0,223.32,154.98,205.70000000000002,225.81,216.26,226.46,138.32000000000002,204.82,135.31,209.11,193.0,162.20000000000002,200.28,108.89999999999999,170.82,234.22000000000003,342.72,292.05,199.0,252.42000000000002,160.73999999999998,111.66,276.92,255.92000000000002,260.82000000000005,76.24,195.20999999999998,363.47,227.88,156.0,223.72000000000003,261.66,231.95999999999998,235.43,317.28000000000003,220.2,165.69,276.45,180.60000000000002,250.92,310.56,231.48,213.84,210.8,252.59,155.36,179.0,317.28000000000003,226.92,166.70000000000002,226.33,165.23999999999998,272.02000000000004,136.72,201.85,295.5,156.64000000000001,244.01000000000002,235.79999999999998,157.95,234.41,185.94,240.0,139.23000000000002,181.70000000000002,201.10000000000002,143.20000000000002,173.16,155.04,225.06,177.10000000000002,191.07,234.92000000000002,269.76,283.05,220.11,196.9,183.87,351.36,222.53,121.92,101.1,238.16,326.06,200.8,238.70000000000002,175.70000000000002,254.76,193.0,214.2,168.84,199.32,293.25,155.52,229.07999999999998,241.78000000000003,209.8,219.6,361.59000000000003,265.07,215.70000000000002,233.87,216.15,294.75,201.52,231.12,227.37,262.6,162.35999999999999,322.15000000000003,209.99,206.70000000000002,301.6,126.89999999999999,146.72,213.0,191.10000000000002,248.56,117.18,55.589999999999996,257.18,125.33999999999999,272.72,272.58000000000004,194.7,212.85,299.52,184.59,349.02,145.68,187.5,226.33,204.49,159.57,192.06,186.9,166.48,121.38,292.8,204.16,275.52000000000004,115.97999999999999,224.84,156.64000000000001,296.48,150.16,203.06,217.00000000000003,157.59,288.68,162.9,157.28,227.76,271.46000000000004,159.6,119.14000000000001,249.20000000000002,195.47,191.9,305.84999999999997,139.65,156.16,298.35,228.03,161.46,168.93,137.84,137.97000000000003,209.20000000000002,189.9,141.89000000000001,165.76,290.84999999999997,183.23999999999998,133.12,283.95,230.64,211.2,268.96,203.04,219.01,140.31,170.54999999999998,159.75,111.24,152.64,200.09,171.45,181.53,217.0,259.2,229.32,266.14000000000004,94.85000000000001,230.64,135.87,173.5,161.76,146.0,205.48,242.76,193.10000000000002,186.70000000000002,255.0,265.3,283.05,171.3,210.54,247.94000000000003,224.88,197.4,204.49,234.84,239.16,128.73000000000002,307.5,168.93,218.79,213.35999999999999,204.82,168.21,315.2,166.68,245.14000000000001,149.92000000000002,266.70000000000005,153.36,383.58,252.42000000000002,250.64999999999998,193.9,251.16000000000003,201.08,228.12,208.44,176.57999999999998,175.59,335.92,224.76,222.97,161.44,204.4,178.82999999999998,211.53,153.12,209.88,382.85,239.68000000000004,305.84999999999997,101.35000000000001,127.05000000000001,339.47999999999996,159.48,114.53999999999999,278.46000000000004,162.81,209.51999999999998,175.41,309.28000000000003,207.35,186.93,248.50000000000003,225.06,125.37000000000002,250.46000000000004,206.5,268.43,72.68,125.28,130.96,233.87,256.65,287.98,322.40000000000003,251.03,190.3,323.84999999999997,279.75,301.95,187.70000000000002,213.29,146.34,188.1,160.10999999999999,109.97000000000001,313.92,222.35999999999999,198.22,124.95000000000002,127.89000000000001,119.49000000000001,195.36,170.8,158.4,107.75999999999999,302.72,212.19,193.2,299.68,252.33,241.95,160.29,227.4,118.19999999999999,226.07000000000002,336.32,304.48,286.65,223.99,110.7,199.76,223.99,201.60000000000002,197.01,188.5,197.01,212.94000000000003,248.54999999999998,175.23,170.3,196.5,149.68,208.78,176.94,114.31000000000002,89.95,232.44,213.23999999999998,111.06,155.88,174.15,230.1,152.08,308.32,205.79000000000002,223.56,203.97,268.58,131.12,194.70000000000002,123.42,330.99,316.71000000000004,148.0,246.0,339.84,141.4,248.08,250.38,266.37,207.09,189.70000000000002,230.44000000000003,253.79999999999998,149.36,245.70000000000002,198.33,138.32,156.6,181.60000000000002,347.89,210.98,109.97000000000001,230.28,216.15,217.56,230.23000000000002,177.39,192.10000000000002,172.8,242.71,175.4,338.4,146.93,215.04,286.2,422.72999999999996,132.51000000000002,251.68,260.54,194.5,206.88,256.23,267.68,141.93,166.68,197.23,266.09999999999997,78.76,357.3,192.3,226.85,181.83,179.9,301.07000000000005,177.4,297.15,286.5,187.99,123.11999999999999,149.68,198.22,244.53,156.51,195.9,159.29999999999998,122.78000000000002,319.68,170.91,245.54999999999998,272.7,213.84,233.61,130.41000000000003,165.32999999999998,235.95000000000002,264.04,208.32,268.8,216.23999999999998,203.16,199.21,168.21,207.57,155.6,223.79999999999998,194.5,334.05,116.22,200.70000000000002,154.64000000000001,130.08,268.24,96.45,180.45,224.64,205.92,200.53,304.96,187.3,111.66,170.19,170.91,316.54,89.0,168.88,190.70000000000002,252.00000000000003,101.35000000000001,168.08,274.56,254.54000000000002,186.5,268.52000000000004,166.76999999999998,261.43,169.65,203.32,220.22,279.0,196.13,227.08,167.85,191.04,205.67999999999998,262.22,103.61999999999999,242.06,193.10000000000002,166.10000000000002,216.6,196.2,191.95,350.82,136.96,116.1,188.21,179.4,204.0,205.01000000000002,174.95999999999998,207.9,202.51,235.79999999999998,328.48,276.75,209.51999999999998,270.90000000000003,135.24,260.09999999999997,178.82999999999998,137.83,264.75,139.02,179.10000000000002,177.20999999999998,257.18,232.92,216.81,274.95,195.91,270.59999999999997,128.88,220.07999999999998,148.64000000000001,271.46000000000004,225.6,239.52,238.03,176.22,234.84,183.10000000000002,125.51,171.26999999999998,251.94,236.18000000000004,236.47,221.52,280.48,103.4,187.8,334.24,147.12,199.70000000000002,239.76,130.97,212.74,170.54999999999998,145.53,263.62,171.54,218.13,192.70000000000002,162.35999999999999,211.75,176.67,150.32,133.56,153.44,151.44,226.56,250.44,235.56,239.16,169.65,121.73000000000002,220.2,237.23999999999998,210.0,300.64,238.32,316.96,101.65,222.75,126.77000000000001,240.37,149.20000000000002,301.6,181.53,234.12,260.26000000000005,189.9,237.0,308.38,127.19000000000001,270.14,193.10000000000002,241.67999999999998,235.56,130.41000000000003,193.5,229.32000000000002,247.91,216.84,228.62000000000003,133.0,193.41,157.84,205.44,167.12,165.87,267.41,192.9,215.49,176.9,162.98999999999998,229.32,204.60000000000002,220.67999999999998,248.28,167.4,227.4,210.43,232.44,184.70000000000002,165.87,215.28,318.08,82.05000000000001,235.32,318.75,321.45,227.4,216.35999999999999,319.2,183.9,192.5,307.2,134.26000000000002,81.35000000000001,171.18,278.74,241.93,224.62,244.07999999999998,191.29,337.6,270.62,332.32,170.91,256.23,171.18,180.10000000000002,243.49,216.81,242.76000000000002,129.08,277.90000000000003,144.96,157.68,206.69,163.52,245.44,128.31,174.51,159.84,204.71,184.32,178.3,191.10000000000002,279.9,114.17999999999999,230.04,293.84999999999997,288.15000000000003,151.76,173.60999999999999,254.28,255.50000000000003,209.04,284.55,233.48000000000002,237.77,233.64,162.45,185.70000000000002,111.23,171.9,207.35,289.8,258.44,426.20000000000005,189.4,253.40000000000003,195.3,230.01,196.57,361.08,333.37,195.8,187.60000000000002,184.9,283.05,213.48,175.95,131.53,147.69,217.69,168.39,197.56,195.8,167.13,167.84,261.59999999999997,234.12,201.3,183.59,195.5,254.52,175.5,221.98,262.21000000000004,173.20000000000002,193.10000000000002,135.45000000000002,357.01,210.32,336.24,191.4,277.20000000000005,270.90000000000003,204.70000000000002,250.51000000000002,194.60000000000002,171.72,238.16,180.84,114.6,109.86,195.69,96.66,157.36,199.1,173.0,257.53000000000003,184.10000000000002,184.10000000000002,211.31,194.7,189.70000000000002,123.72,238.44,186.70000000000002,221.76,163.62,231.01000000000002,263.90000000000003,215.05,217.79999999999998,197.60000000000002,194.92,264.16,205.59,218.68,192.94,176.3,204.05,221.88,203.72,254.93,167.44,124.67999999999999,205.9,232.1,228.48,148.4,96.85000000000001,288.96,135.92000000000002,162.0,139.04,222.2,221.87,182.3,259.87,264.0,200.5,216.48,159.84,105.24,251.3,118.79,244.32,226.38,138.96,263.55,194.48999999999998,148.0,162.81,77.52,123.48000000000002,230.23,245.31,157.84,129.01000000000002,63.12,152.0,206.25,229.58,311.55,213.07,79.65,229.07999999999998,213.48,248.69,169.92,190.4,277.06,241.28,185.0,176.70000000000002,173.25,153.63,199.76,240.0,162.45,272.58000000000004,304.2,208.92,332.35,166.68,382.83,270.20000000000005,203.06,244.2,182.0,147.6,142.38000000000002,148.32,160.2,184.76999999999998,203.61,200.20000000000002,241.02,240.72,150.48,183.3,117.66,252.42000000000002,177.3,201.74,288.3,163.98,80.10000000000001,297.45,189.09,292.05,207.24,208.10000000000002,149.04,138.25,189.97,252.95999999999998,192.10000000000002,325.55,330.31,238.07999999999998,184.25,258.45,190.63,296.48,183.69,128.72,150.57000000000002,355.64000000000004,159.6,163.36,282.56,246.09,244.14000000000001,221.51999999999998,272.3,173.7,220.92,161.04,190.63,267.68,212.03,224.38,260.12,142.4,181.53,192.17,323.68,52.35,256.23,233.88,316.95,157.14,257.14,221.65,170.37,189.53,109.86,136.22,147.44,114.24,159.12,136.48,206.25,136.56,222.09,185.9,162.98999999999998,251.81,180.09,203.28,207.46,94.2,97.75,95.55000000000001,259.70000000000005,223.86,146.32,316.62,175.3,156.23999999999998,190.9,181.60000000000002,225.28,238.81,188.3,325.34999999999997,282.45,158.85,200.53,249.34,238.68,298.65,209.9,283.65,265.28000000000003,228.48,238.42000000000002,215.82,170.54999999999998,287.7,71.08,152.16,205.26,285.92,264.68,272.4,152.64000000000001,234.91,179.64,166.59,218.04,283.78000000000003,163.17,226.79999999999998,261.45,187.4,253.11,90.25,278.4,157.14,241.01,272.3,163.71,154.62,197.01,239.07000000000002,197.20000000000002,273.44,231.95999999999998,160.24,242.28,207.35999999999999,302.72,136.96,230.88,224.84,178.10999999999999,214.28,92.9,227.04,270.56,190.70000000000002,189.9,135.38000000000002,199.21,127.33000000000001,242.06000000000003,271.34999999999997,206.25,224.04,145.36,166.48,308.4,217.47,172.8,193.3,112.5,207.79,205.26,170.70000000000002,141.89000000000001,220.66,193.9,193.27,110.28,338.39,187.0,257.01,195.70000000000002,162.26999999999998,124.95000000000002,200.8,232.87,175.23,242.06,230.45,292.34999999999997,151.20000000000002,251.16,233.97,246.23999999999998,262.8,210.48,275.38000000000005,112.74,199.43,222.43,217.14000000000001,252.14000000000001,296.7,223.6,192.83,256.62,245.96,146.48,152.96,247.26000000000002,308.0,167.31,73.76,164.56,180.18,195.91,143.28,187.77,308.72,410.13,126.07000000000001,224.25,103.25999999999999,197.67,110.33999999999999,213.84,249.62000000000003,193.10000000000002,286.2,301.65,174.70000000000002,210.65,188.5,252.12,117.88000000000001,240.63,211.97,121.02,208.45,292.46000000000004,197.3,168.9,241.07999999999998,198.55,171.63,178.01999999999998,228.02,222.60000000000002,316.71000000000004,184.25,133.91000000000003,151.01999999999998,147.12,154.88,271.74,276.15,242.19,282.71000000000004,82.15,270.62,256.88,152.01,133.77,107.46,133.56,273.42,179.9,201.3,188.20000000000002,218.79,299.25,285.74,103.32,269.23,203.5,265.33,234.95999999999998,248.76,352.08,177.70000000000002,191.5,340.51000000000005,242.28,313.12,162.09,101.65,260.13,237.0,208.78,247.78,187.77,142.88,249.21,266.25,130.20000000000002,231.48,191.43,229.67999999999998,185.35,217.69,116.48000000000002,219.05,258.86,226.32,237.12,121.24000000000001,188.3,192.8,96.4,200.97,108.42,180.70000000000002,238.44,222.48,107.28,175.9,164.0,225.0,114.17000000000002,109.86,241.79999999999998,189.8,146.16,219.48,150.4,170.4,185.60000000000002,121.5,223.02,177.03,189.45,150.08,260.65000000000003,70.0,251.16,178.9,143.04,274.43,175.41,301.2,229.32000000000002,341.6,247.39000000000001,249.73000000000002,210.54,154.0,199.43,128.31,93.60000000000001,210.54,294.14000000000004,214.67999999999998,126.77000000000001,224.38,222.35999999999999,216.92,304.05,224.64,233.61,298.95,116.27000000000001,214.83,269.36,308.96,247.52,254.52,267.54,252.72,203.88,136.08,142.8,248.17000000000002,269.22,255.84,264.46000000000004,249.95999999999998,110.58,122.99000000000001,239.98000000000002,120.11999999999999,148.0,92.30000000000001,287.70000000000005,199.10000000000002,223.21,240.63,288.64,184.68,236.51999999999998,257.01,234.52,141.4,236.51999999999998,273.0,245.39999999999998,106.2,150.32,208.5,269.5,286.34999999999997,227.89000000000001,402.78,243.75,225.48,234.14999999999998,309.12,138.96,172.26,249.21,245.83,83.10000000000001,219.23999999999998,223.92,289.38000000000005,293.55,256.06,221.51999999999998,202.62,278.6,143.84,187.88,141.05,251.55,153.26999999999998,179.20000000000002,202.29,215.88,171.4,90.80000000000001,193.32,186.3,343.06,297.0,207.84,259.61,274.05,260.91,136.16,174.32999999999998,149.92000000000002,282.8,114.78,316.26,302.24,156.15,169.65,247.24000000000004,135.03,133.21,285.92,149.36,281.25,167.20000000000002,146.4,265.72,172.35,226.79999999999998,205.48,177.8,217.14000000000001,117.78,174.15,210.1,261.04,178.9,115.92000000000002,321.64000000000004,168.29999999999998,138.96,154.56,219.95999999999998,228.15,131.39000000000001,241.41,129.01000000000002,235.32,136.5,150.66,268.8,255.06,252.33,283.22,131.52,182.60000000000002,278.6,204.38,147.92000000000002,261.1,229.2,134.75,139.37,185.5,148.64000000000001,216.48,198.48,185.9,95.7,120.89000000000001,214.44,208.32,292.64,112.08,214.70000000000002,143.92000000000002,250.12,208.32,193.70000000000002,167.5,361.08,175.70000000000002,291.52,243.23000000000002,316.03000000000003,175.5,223.3,202.51,243.74,131.18,121.04,254.85,231.01000000000002,133.84,184.23,156.24,270.62,185.9,228.0,226.38000000000002,197.70000000000002,231.89999999999998,231.55,337.92,215.38,330.12,131.39000000000001,141.20000000000002,258.45,99.85000000000001,243.48,192.17,317.39000000000004,221.32,187.70000000000002,204.5,192.4,183.9,236.83,192.10000000000002,204.9,204.27,174.06,121.80000000000001,188.21,196.70000000000002,107.55000000000001,301.95,208.92,190.10000000000002,105.89999999999999,220.55,264.74,182.25,201.72,178.10000000000002,167.57999999999998,311.25,251.03,254.67000000000002,237.64000000000001,159.93,133.52,117.06,212.64,160.29,245.31,274.05,187.5,148.56,237.95999999999998,172.25,311.27000000000004,233.61,192.28,199.76,113.22,275.66,119.63000000000001,293.25,160.72,222.12,200.97,324.53000000000003,157.76999999999998,222.09,185.8,248.69,143.44,206.47,289.65,117.78,167.0,199.3,139.68,275.66,161.82,162.98999999999998,189.31,266.0,224.16,94.55000000000001,226.44,191.4,265.72,125.51,224.07,211.79999999999998,157.41,198.3,223.63,268.66,196.57,345.96,245.70000000000002,153.26999999999998,210.6,175.20000000000002,111.37,191.88,273.42,233.39999999999998,215.88,262.08000000000004,117.66,178.75,139.28,242.76,196.9,125.86000000000001,246.48000000000002,213.62,277.03000000000003,195.9,210.6,277.28000000000003,174.87,192.5,188.20000000000002,102.0,251.16,296.31,204.05,258.31,124.67000000000002,150.39,203.4,194.04,141.75,176.70000000000002,261.82,178.5,233.74,187.10000000000002,269.78000000000003,182.70000000000002,211.67999999999998,216.32,271.5,208.67,266.11,192.87,315.3,254.52,253.95,103.32,308.16,260.65000000000003,237.95999999999998,217.67999999999998,165.87,174.23999999999998,256.62,116.94,218.04,203.88,167.67,226.07999999999998,164.60999999999999,155.07,298.72,275.38000000000005,218.24,176.60000000000002,237.23999999999998,156.72,279.75,158.48,176.8,76.44,304.64,270.0,313.31,282.45,188.70000000000002,105.83999999999999,161.01,196.24,293.84999999999997,261.38000000000005,171.9,192.83,180.0,149.68,157.12,157.76999999999998,192.3,279.72,197.34,246.54000000000002,385.22,219.01,320.11,195.4,178.9,192.8,200.64000000000001,169.92,188.0,209.88,157.60000000000002,289.8,139.76999999999998,225.0,195.5,217.25,192.17,196.4,207.46,306.9,192.8,228.91,284.8,323.68,242.62000000000003,230.62,264.15,236.16,214.2,267.75,312.0,166.9,140.31,169.01999999999998,179.45999999999998,228.93,104.03999999999999,130.9,215.64,216.37,200.42,179.3,201.5,302.09999999999997,282.20000000000005,217.03,233.94000000000003,97.65,217.58,189.3,235.07999999999998,139.04,153.12,112.97999999999999,243.95999999999998,216.23999999999998,177.48,233.09,114.52000000000001,281.84999999999997,212.96,255.32000000000002,171.09,183.87,142.08,118.86,295.84000000000003,199.70000000000002,292.06,129.92000000000002,286.56,155.16,252.84000000000003,203.76,118.56,219.84,137.28,238.44,89.55000000000001,165.36,155.68,200.76,73.56,237.23999999999998,173.97,135.52,112.61999999999999,182.60999999999999,298.05,113.03999999999999,194.64,232.79999999999998,125.52,235.3,179.28,250.25,189.3,178.5,168.93,177.20000000000002,136.92000000000002,184.9,170.28,154.16,113.33999999999999,192.70000000000002,280.28000000000003,188.98,205.2,214.17,298.40000000000003,177.20999999999998,274.68,154.96,298.88,197.23,246.84,230.51999999999998,226.32,173.34,280.98,215.16,81.4,304.3,113.46,98.4,291.15,206.64,113.28,171.98999999999998,201.12,254.04,202.95,269.62,289.44,198.4,346.75,119.1,55.65,171.54,257.27,180.98999999999998,122.22000000000001,270.20000000000005,175.9,290.7,297.5,148.16,204.4,121.44,232.40000000000003,180.98999999999998,200.2,178.10999999999999,122.01,256.1,283.68,276.5,255.23999999999998,174.51,171.6,264.59999999999997,194.7,222.31,221.1,261.3,132.23000000000002,80.35000000000001,144.56,239.07000000000002,250.51000000000002,101.88,232.56,175.23,98.25,231.48,239.72,225.39000000000001,226.92,244.72000000000003,196.68,109.48,131.04000000000002,126.0,130.13000000000002,207.0,303.40000000000003,187.9,259.70000000000005,210.65,209.55,135.68,332.01000000000005,188.32,206.10000000000002,254.8,274.82000000000005,173.70000000000002,198.23999999999998,205.8,200.75,360.8,186.20000000000002,170.5,127.84,207.02,315.36,201.41,185.10000000000002,213.0,125.09000000000002,212.28,182.3,253.37,155.51999999999998,176.31,239.20000000000002,97.85000000000001,234.0,206.14000000000001,293.7,223.07999999999998,238.68,229.07999999999998,351.31,195.66,178.70000000000002,156.69,238.79999999999998,307.04,93.2,320.16,143.44,252.84000000000003,163.52,222.35999999999999,169.65,261.8,227.4,282.3,263.62,245.57000000000002,362.52,164.79,139.37,303.2,185.67,202.70000000000002,122.08,153.52,188.10000000000002,181.3,174.51,233.39999999999998,204.93,191.0,162.32,205.15,194.5,224.51,88.7,134.4,143.85000000000002,181.8,213.5,116.55000000000001,357.77,203.17,202.92,259.28000000000003,183.32999999999998,131.76,197.4,248.64000000000001,256.8,196.70000000000002,228.95999999999998,170.06,192.42,215.64,371.7,127.75000000000001,296.7,249.34000000000003,171.45,318.75,276.22,258.96000000000004,92.65,193.0,161.1,257.09999999999997,316.71000000000004,161.54999999999998,181.35,190.8,161.6,72.0,317.44,248.64000000000001,204.4,195.0,193.3,146.43,256.65,208.23,254.41,133.07000000000002,196.3,240.11,224.07,219.72,154.70000000000002,270.06,193.10000000000002,245.83,175.95,208.79999999999998,213.48,187.65,250.77,176.85,166.5,97.02,169.47,129.5,170.70000000000002,224.88,264.42,295.84000000000003,164.16,198.77,187.60000000000002,251.16,142.8,294.78000000000003,189.4,242.19,171.05,204.38,172.98,181.35,125.09000000000002,176.77,199.21,254.93,95.85000000000001,109.08,185.57,76.52,111.42,149.4,171.5,244.66,311.55,214.72,244.79000000000002,170.37,288.15,151.47,229.79999999999998,157.52,191.07,252.72,112.14,250.38,217.07999999999998,204.95999999999998,143.76,110.58,121.94000000000001,185.3,311.52,198.5,202.3,153.36,141.20000000000002,232.2,124.56,279.45,201.9,184.4,134.32,329.63,320.0,270.53000000000003,215.93,124.11000000000001,251.94,240.72,235.56,196.68,129.85000000000002,218.4,139.28,230.88,96.65,235.56,179.63,218.79,108.42,121.73000000000002,172.9,284.7,151.36,206.51999999999998,170.8,182.8,216.23999999999998,276.48,148.47000000000003,360.23,258.31,150.8,210.43,169.70000000000002,196.8,204.48,173.07,235.32,136.8,258.02000000000004,288.15,103.4,286.34999999999997,172.35,149.22,187.22,272.48,134.82000000000002,250.12,122.57000000000001,124.95000000000002,189.54,208.12,235.2,114.66,201.3,157.44,226.2,245.31,188.19,186.10000000000002,139.65,239.76,138.96,142.08,245.31,166.85999999999999,233.35,174.9,239.39999999999998,284.62,253.79999999999998,158.16,198.8,212.41,232.67999999999998,239.76,265.8,251.16,148.72,287.25,135.17000000000002,241.8,133.68,163.35,213.18,342.36,170.28,264.94,172.98,205.92000000000002,147.92000000000002,168.5,236.32000000000002,399.19,214.56,332.96,198.4,276.92,204.49,244.92,170.3,206.4,242.84,148.8,214.06,199.81,109.86,265.05,225.48
