,0,1,2,3,4,5,6,7,8,9,10,11,12,13,14,15,16,17,18,19,20,21,22,23,24,25,26,27,28,29,30,31,32,33,34,35,36,37,38,39,40,41,42,43,44,45,46,47,48,49,50,51,52,53,54,55,56,57,58,59,60,61,62,63,64,65,66,67,68,69,70,71,72,73,74,75,76,77,78,79,80,81,82,83,84,85,86,87,88,89,90,91,92,93,94,95,96,97,98,99,100,101,102,103,104,105,106,107,108,109,110,111,112,113,114,115,116,117,118,119,120,121,122,123,124,125,126,127,128,129,130,131,132,133,134,135,136,137,138,139,140,141,142,143,144,145,146,147,148,149,150,151,152,153,154,155,156,157,158,159,160,161,162,163,164,165,166,167,168,169,170,171,172,173,174,175,176,177,178,179,180,181,182,183,184,185,186,187,188,189,190,191,192,193,194,195,196,197,198,199,200,201,202,203,204,205,206,207,208,209,210,211,212,213,214,215,216,217,218,219,220,221,222,223,224,225,226,227,228,229,230,231,232,233,234,235,236,237,238,239,240,241,242,243,244,245,246,247,248,249,250,251,252,253,254,255,256,257,258,259,260,261,262,263,264,265,266,267,268,269,270,271,272,273,274,275,276,277,278,279,280,281,282,283,284,285,286,287,288,289,290,291,292,293,294,295,296,297,298,299,300,301,302,303,304,305,306,307,308,309,310,311,312,313,314,315,316,317,318,319,320,321,322,323,324,325,326,327,328,329,330,331,332,333,334,335,336,337,338,339,340,341,342,343,344,345,346,347,348,349,350,351,352,353,354,355,356,357,358,359,360,361,362,363,364,365,366,367,368,369,370,371,372,373,374,375,376,377,378,379,380,381,382,383,384,385,386,387,388,389,390,391,392,393,394,395,396,397,398,399,400,401,402,403,404,405,406,407,408,409,410,411,412,413,414,415,416,417,418,419,420,421,422,423,424,425,426,427,428,429,430,431,432,433,434,435,436,437,438,439,440,441,442,443,444,445,446,447,448,449,450,451,452,453,454,455,456,457,458,459,460,461,462,463,464,465,466,467,468,469,470,471,472,473,474,475,476,477,478,479,480,481,482,483,484,485,486,487,488,489,490,491,492,493,494,495,496,497,498,499,500,501,502,503,504,505,506,507,508,509,510,511,512,513,514,515,516,517,518,519,520,521,522,523,524,525,526,527,528,529,530,531,532,533,534,535,536,537,538,539,540,541,542,543,544,545,546,547,548,549,550,551,552,553,554,555,556,557,558,559,560,561,562,563,564,565,566,567,568,569,570,571,572,573,574,575,576,577,578,579,580,581,582,583,584,585,586,587,588,589,590,591,592,593,594,595,596,597,598,599,600,601,602,603,604,605,606,607,608,609,610,611,612,613,614,615,616,617,618,619,620,621,622,623,624,625,626,627,628,629,630,631,632,633,634,635,636,637,638,639,640,641,642,643,644,645,646,647,648,649,650,651,652,653,654,655,656,657,658,659,660,661,662,663,664,665,666,667,668,669,670,671,672,673,674,675,676,677,678,679,680,681,682,683,684,685,686,687,688,689,690,691,692,693,694,695,696,697,698,699,700,701,702,703,704,705,706,707,708,709,710,711,712,713,714,715,716,717,718,719,720,721,722,723,724,725,726,727,728,729,730,731,732,733,734,735,736,737,738,739,740,741,742,743,744,745,746,747,748,749,750,751,752,753,754,755,756,757,758,759,760,761,762,763,764,765,766,767,768,769,770,771,772,773,774,775,776,777,778,779,780,781,782,783,784,785,786,787,788,789,790,791,792,793,794,795,796,797,798,799,800,801,802,803,804,805,806,807,808,809,810,811,812,813,814,815,816,817,818,819,820,821,822,823,824,825,826,827,828,829,830,831,832,833,834,835,836,837,838,839,840,841,842,843,844,845,846,847,848,849,850,851,852,853,854,855,856,857,858,859,860,861,862,863,864,865,866,867,868,869,870,871,872,873,874,875,876,877,878,879,880,881,882,883,884,885,886,887,888,889,890,891,892,893,894,895,896,897,898,899,900,901,902,903,904,905,906,907,908,909,910,911,912,913,914,915,916,917,918,919,920,921,922,923,924,925,926,927,928,929,930,931,932,933,934,935,936,937,938,939,940,941,942,943,944,945,946,947,948,949,950,951,952,953,954,955,956,957,958,959,960,961,962,963,964,965,966,967,968,969,970,971,972,973,974,975,976,977,978,979,980,981,982,983,984,985,986,987,988,989,990,991,992,993,994,995,996,997,998,999,1000,1001,1002,1003,1004,1005,1006,1007,1008,1009,1010,1011,1012,1013,1014,1015,1016,1017,1018,1019,1020,1021,1022,1023,1024,1025,1026,1027,1028,1029,1030,1031,1032,1033,1034,1035,1036,1037,1038,1039,1040,1041,1042,1043,1044,1045,1046,1047,1048,1049,1050,1051,1052,1053,1054,1055,1056,1057,1058,1059,1060,1061,1062,1063,1064,1065,1066,1067,1068,1069,1070,1071,1072,1073,1074,1075,1076,1077,1078,1079,1080,1081,1082,1083,1084,1085,1086,1087,1088,1089,1090,1091,1092,1093,1094,1095,1096,1097,1098,1099,1100,1101,1102,1103,1104,1105,1106,1107,1108,1109,1110,1111,1112,1113,1114,1115,1116,1117,1118,1119,1120,1121,1122,1123,1124,1125,1126,1127,1128,1129,1130,1131,1132,1133,1134,1135,1136,1137,1138,1139,1140,1141,1142,1143,1144,1145,1146,1147,1148,1149,1150,1151,1152,1153,1154,1155,1156,1157,1158,1159,1160,1161,1162,1163,1164,1165,1166,1167,1168,1169,1170,1171,1172,1173,1174,1175,1176,1177,1178,1179,1180,1181,1182,1183,1184,1185,1186,1187,1188,1189,1190,1191,1192,1193,1194,1195,1196,1197,1198,1199,1200,1201,1202,1203,1204,1205,1206,1207,1208,1209,1210,1211,1212,1213,1214,1215,1216,1217,1218,1219,1220,1221,1222,1223,1224,1225,1226,1227,1228,1229,1230,1231,1232,1233,1234,1235,1236,1237,1238,1239,1240,1241,1242,1243,1244,1245,1246,1247,1248,1249,1250,1251,1252,1253,1254,1255,1256,1257,1258,1259,1260,1261,1262,1263,1264,1265,1266,1267,1268,1269,1270,1271,1272,1273,1274,1275,1276,1277,1278,1279,1280,1281,1282,1283,1284,1285,1286,1287,1288,1289,1290,1291,1292,1293,1294,1295,1296,1297,1298,1299,1300,1301,1302,1303,1304,1305,1306,1307,1308,1309,1310,1311,1312,1313,1314,1315,1316,1317,1318,1319,1320,1321,1322,1323,1324,1325,1326,1327,1328,1329,1330,1331,1332,1333,1334,1335,1336,1337,1338,1339,1340,1341,1342,1343,1344,1345,1346,1347,1348,1349,1350,1351,1352,1353,1354,1355,1356,1357,1358,1359,1360,1361,1362,1363,1364,1365,1366,1367,1368,1369,1370,1371,1372,1373,1374,1375,1376,1377,1378,1379,1380,1381,1382,1383,1384,1385,1386,1387,1388,1389,1390,1391,1392,1393,1394,1395,1396,1397,1398,1399,1400,1401,1402,1403,1404,1405,1406,1407,1408,1409,1410,1411,1412,1413,1414,1415,1416,1417,1418,1419,1420,1421,1422,1423,1424,1425,1426,1427,1428,1429,1430,1431,1432,1433,1434,1435,1436,1437,1438,1439,1440,1441,1442,1443,1444,1445,1446,1447,1448,1449,1450,1451,1452,1453,1454,1455,1456,1457,1458,1459,1460,1461,1462,1463,1464,1465,1466,1467,1468,1469,1470,1471,1472,1473,1474,1475,1476,1477,1478,1479,1480,1481,1482,1483,1484,1485,1486,1487,1488,1489,1490,1491,1492,1493,1494,1495,1496,1497,1498,1499,1500,1501,1502,1503,1504,1505,1506,1507,1508,1509,1510,1511,1512,1513,1514,1515,1516,1517,1518,1519,1520,1521,1522,1523,1524,1525,1526,1527,1528,1529,1530,1531,1532,1533,1534,1535,1536,1537,1538,1539,1540,1541,1542,1543,1544,1545,1546,1547,1548,1549,1550,1551,1552,1553,1554,1555,1556,1557,1558,1559,1560,1561,1562,1563,1564,1565,1566,1567,1568,1569,1570,1571,1572,1573,1574,1575,1576,1577,1578,1579,1580,1581,1582,1583,1584,1585,1586,1587,1588,1589,1590,1591,1592,1593,1594,1595,1596,1597,1598,1599,1600,1601,1602,1603,1604,1605,1606,1607,1608,1609,1610,1611,1612,1613,1614,1615,1616,1617,1618,1619,1620,1621,1622,1623,1624,1625,1626,1627,1628,1629,1630,1631,1632,1633,1634,1635,1636,1637,1638,1639,1640,1641,1642,1643,1644,1645,1646,1647,1648,1649,1650,1651,1652,1653,1654,1655,1656,1657,1658,1659,1660,1661,1662,1663,1664,1665,1666,1667,1668,1669,1670,1671,1672,1673,1674,1675,1676,1677,1678,1679,1680,1681,1682,1683,1684,1685,1686,1687,1688,1689,1690,1691,1692,1693,1694,1695,1696,1697,1698,1699,1700,1701,1702,1703,1704,1705,1706,1707,1708,1709,1710,1711,1712,1713,1714,1715,1716,1717,1718,1719,1720,1721,1722,1723,1724,1725,1726,1727,1728,1729,1730,1731,1732,1733,1734,1735,1736,1737,1738,1739,1740,1741,1742,1743,1744,1745,1746,1747,1748,1749,1750,1751,1752,1753,1754,1755,1756,1757,1758,1759,1760,1761,1762,1763,1764,1765,1766,1767,1768,1769,1770,1771,1772,1773,1774,1775,1776,1777,1778,1779,1780,1781,1782,1783,1784,1785,1786,1787,1788,1789,1790,1791,1792,1793,1794,1795,1796,1797,1798,1799,1800,1801,1802,1803,1804,1805,1806,1807,1808,1809,1810,1811,1812,1813,1814,1815,1816,1817,1818,1819,1820,1821,1822,1823,1824,1825,1826,1827,1828,1829,1830,1831,1832,1833,1834,1835,1836,1837,1838,1839,1840,1841,1842,1843,1844,1845,1846,1847,1848,1849,1850,1851,1852,1853,1854,1855,1856,1857,1858,1859,1860,1861,1862,1863,1864,1865,1866,1867,1868,1869,1870,1871,1872,1873,1874,1875,1876,1877,1878,1879,1880,1881,1882,1883,1884,1885,1886,1887,1888,1889,1890,1891,1892,1893,1894,1895,1896,1897,1898,1899,1900,1901,1902,1903,1904,1905,1906,1907,1908,1909,1910,1911,1912,1913,1914,1915,1916,1917,1918,1919,1920,1921,1922,1923,1924,1925,1926,1927,1928,1929,1930,1931,1932,1933,1934,1935,1936,1937,1938,1939,1940,1941,1942,1943,1944,1945,1946,1947,1948,1949,1950,1951,1952,1953,1954,1955,1956,1957,1958,1959,1960,1961,1962,1963,1964,1965,1966,1967,1968,1969,1970,1971,1972,1973,1974,1975,1976,1977,1978,1979,1980,1981,1982,1983,1984,1985,1986,1987,1988,1989,1990,1991,1992,1993,1994,1995,1996,1997,1998,1999,2000,2001,2002,2003,2004,2005,2006,2007,2008,2009,2010,2011,2012,2013,2014,2015,2016,2017,2018,2019,2020,2021,2022,2023,2024,2025,2026,2027,2028,2029,2030,2031,2032,2033,2034,2035,2036,2037,2038,2039,2040,2041,2042,2043,2044,2045,2046,2047,2048,2049,2050,2051,2052,2053,2054,2055,2056,2057,2058,2059,2060,2061,2062,2063,2064,2065,2066,2067,2068,2069,2070,2071,2072,2073,2074,2075,2076,2077,2078,2079,2080,2081,2082,2083,2084,2085,2086,2087,2088,2089,2090,2091,2092,2093,2094,2095,2096,2097,2098,2099,2100,2101,2102,2103,2104,2105,2106,2107,2108,2109,2110,2111,2112,2113,2114,2115,2116,2117,2118,2119,2120,2121,2122,2123,2124,2125,2126,2127,2128,2129,2130,2131,2132,2133,2134,2135,2136,2137,2138,2139,2140,2141,2142,2143,2144,2145,2146,2147,2148,2149,2150,2151,2152,2153,2154,2155,2156,2157,2158,2159,2160,2161,2162,2163,2164,2165,2166,2167,2168,2169,2170,2171,2172,2173,2174,2175,2176,2177,2178,2179,2180,2181,2182,2183,2184,2185,2186,2187,2188,2189,2190,2191,2192,2193,2194,2195,2196,2197,2198,2199,2200,2201,2202,2203,2204,2205,2206,2207,2208,2209,2210,2211,2212,2213,2214,2215,2216,2217,2218,2219,2220,2221,2222,2223,2224,2225,2226,2227,2228,2229,2230,2231,2232,2233,2234,2235,2236,2237,2238,2239,2240,2241,2242,2243,2244,2245,2246,2247,2248,2249,2250,2251,2252,2253,2254,2255,2256,2257,2258,2259,2260,2261,2262,2263,2264,2265,2266,2267,2268,2269,2270,2271,2272,2273,2274,2275,2276,2277,2278,2279,2280,2281,2282,2283,2284,2285,2286,2287,2288,2289,2290,2291,2292,2293,2294,2295,2296,2297,2298,2299,2300,2301,2302,2303,2304,2305,2306,2307,2308,2309,2310,2311,2312,2313,2314,2315,2316,2317,2318,2319,2320,2321,2322,2323,2324,2325,2326,2327,2328,2329,2330,2331,2332,2333,2334,2335,2336,2337,2338,2339,2340,2341,2342,2343,2344,2345,2346,2347,2348,2349,2350,2351,2352,2353,2354,2355,2356,2357,2358,2359,2360,2361,2362,2363,2364,2365,2366,2367,2368,2369,2370,2371,2372,2373,2374,2375,2376,2377,2378,2379,2380,2381,2382,2383,2384,2385,2386,2387,2388,2389,2390,2391,2392,2393,2394,2395,2396,2397,2398,2399,2400,2401,2402,2403,2404,2405,2406,2407,2408,2409,2410,2411,2412,2413,2414,2415,2416,2417,2418,2419,2420,2421,2422,2423,2424,2425,2426,2427,2428,2429,2430,2431,2432,2433,2434,2435,2436,2437,2438,2439,2440,2441,2442,2443,2444,2445,2446,2447,2448,2449,2450,2451,2452,2453,2454,2455,2456,2457,2458,2459,2460,2461,2462,2463,2464,2465,2466,2467,2468,2469,2470,2471,2472,2473,2474,2475,2476,2477,2478,2479,2480,2481,2482,2483,2484,2485,2486,2487,2488,2489,2490,2491,2492,2493,2494,2495,2496,2497,2498,2499,2500,2501,2502,2503,2504,2505,2506,2507,2508,2509,2510,2511,2512,2513,2514,2515,2516,2517,2518,2519,2520,2521,2522,2523,2524,2525,2526,2527,2528,2529,2530,2531,2532,2533,2534,2535,2536,2537,2538,2539,2540,2541,2542,2543,2544,2545,2546,2547,2548,2549,2550,2551,2552,2553,2554,2555,2556,2557,2558,2559,2560,2561,2562,2563,2564,2565,2566,2567,2568,2569,2570,2571,2572,2573,2574,2575,2576,2577,2578,2579,2580,2581,2582,2583,2584,2585,2586,2587,2588,2589,2590,2591,2592,2593,2594,2595,2596,2597,2598,2599,2600,2601,2602,2603,2604,2605,2606,2607,2608,2609,2610,2611,2612,2613,2614,2615,2616,2617,2618,2619,2620,2621,2622,2623,2624,2625,2626,2627,2628,2629,2630,2631,2632,2633,2634,2635,2636,2637,2638,2639,2640,2641,2642,2643,2644,2645,2646,2647,2648,2649,2650,2651,2652,2653,2654,2655,2656,2657,2658,2659,2660,2661,2662,2663,2664,2665,2666,2667,2668,2669,2670,2671,2672,2673,2674,2675,2676,2677,2678,2679,2680,2681,2682,2683,2684,2685,2686,2687,2688,2689,2690,2691,2692,2693,2694,2695,2696,2697,2698,2699,2700,2701,2702,2703,2704,2705,2706,2707,2708,2709,2710,2711,2712,2713,2714,2715,2716,2717,2718,2719,2720,2721,2722,2723,2724,2725,2726,2727,2728,2729,2730,2731,2732,2733,2734,2735,2736,2737,2738,2739,2740,2741,2742,2743,2744,2745,2746,2747,2748,2749,2750,2751,2752,2753,2754,2755,2756,2757,2758,2759,2760,2761,2762,2763,2764,2765,2766,2767,2768,2769,2770,2771,2772,2773,2774,2775,2776,2777,2778,2779,2780,2781,2782,2783,2784,2785,2786,2787,2788,2789,2790,2791,2792,2793,2794,2795,2796,2797,2798,2799,2800,2801,2802,2803,2804,2805,2806,2807,2808,2809,2810,2811,2812,2813,2814,2815,2816,2817,2818,2819,2820,2821,2822,2823,2824,2825,2826,2827,2828,2829,2830,2831,2832,2833,2834,2835,2836,2837,2838,2839,2840,2841,2842,2843,2844,2845,2846,2847,2848,2849,2850,2851,2852,2853,2854,2855,2856,2857,2858,2859,2860,2861,2862,2863,2864,2865,2866,2867,2868,2869,2870,2871,2872,2873,2874,2875,2876,2877,2878,2879,2880,2881,2882,2883,2884,2885,2886,2887,2888,2889,2890,2891,2892,2893,2894,2895,2896,2897,2898,2899,2900,2901,2902,2903,2904,2905,2906,2907,2908,2909,2910,2911,2912,2913,2914,2915,2916,2917,2918,2919,2920,2921,2922,2923,2924,2925,2926,2927,2928,2929,2930,2931,2932,2933,2934,2935,2936,2937,2938,2939,2940,2941,2942,2943,2944,2945,2946,2947,2948,2949,2950,2951,2952,2953,2954,2955,2956,2957,2958,2959,2960,2961,2962,2963,2964,2965,2966,2967,2968,2969,2970,2971,2972,2973,2974,2975,2976,2977,2978,2979,2980,2981,2982,2983,2984,2985,2986,2987,2988,2989,2990,2991,2992,2993,2994,2995,2996,2997,2998,2999,3000,3001,3002,3003,3004,3005,3006,3007,3008,3009,3010,3011,3012,3013,3014,3015,3016,3017,3018,3019,3020,3021,3022,3023,3024,3025,3026,3027,3028,3029,3030,3031,3032,3033,3034,3035,3036,3037,3038,3039,3040,3041,3042,3043,3044,3045,3046,3047,3048,3049,3050,3051,3052,3053,3054,3055,3056,3057,3058,3059,3060,3061,3062,3063,3064,3065,3066,3067,3068,3069,3070,3071,3072,3073,3074,3075,3076,3077,3078,3079,3080,3081,3082,3083,3084,3085,3086,3087,3088,3089,3090,3091,3092,3093,3094,3095,3096,3097,3098,3099,3100,3101,3102,3103,3104,3105,3106,3107,3108,3109,3110,3111,3112,3113,3114,3115,3116,3117,3118,3119,3120,3121,3122,3123,3124,3125,3126,3127,3128,3129,3130,3131,3132,3133,3134,3135,3136,3137,3138,3139,3140,3141,3142,3143,3144,3145,3146,3147,3148,3149,3150,3151,3152,3153,3154,3155,3156,3157,3158,3159,3160,3161,3162,3163,3164,3165,3166,3167,3168,3169,3170,3171,3172,3173,3174,3175,3176,3177,3178,3179,3180,3181,3182,3183,3184,3185,3186,3187,3188,3189,3190,3191,3192,3193,3194,3195,3196,3197,3198,3199,3200,3201,3202,3203,3204,3205,3206,3207,3208,3209,3210,3211,3212,3213,3214,3215,3216,3217,3218,3219,3220,3221,3222,3223,3224,3225,3226,3227,3228,3229,3230,3231,3232,3233,3234,3235,3236,3237,3238,3239,3240,3241,3242,3243,3244,3245,3246,3247,3248,3249,3250,3251,3252,3253,3254,3255,3256,3257,3258,3259,3260,3261,3262,3263,3264,3265,3266,3267,3268,3269,3270,3271,3272,3273,3274,3275,3276,3277,3278,3279,3280,3281,3282,3283,3284,3285,3286,3287,3288,3289,3290,3291,3292,3293,3294,3295,3296,3297,3298,3299,3300,3301,3302,3303,3304,3305,3306,3307,3308,3309,3310,3311,3312,3313,3314,3315,3316,3317,3318,3319,3320,3321,3322,3323,3324,3325,3326,3327,3328,3329,3330,3331,3332,3333,3334,3335,3336,3337,3338,3339,3340,3341,3342,3343,3344,3345,3346,3347,3348,3349,3350,3351,3352,3353,3354,3355,3356,3357,3358,3359,3360,3361,3362,3363,3364,3365,3366,3367,3368,3369,3370,3371,3372,3373,3374,3375,3376,3377,3378,3379,3380,3381,3382,3383,3384,3385,3386,3387,3388,3389,3390,3391,3392,3393,3394,3395,3396,3397,3398,3399,3400,3401,3402,3403,3404,3405,3406,3407,3408,3409,3410,3411,3412,3413,3414,3415,3416,3417,3418,3419,3420,3421,3422,3423,3424,3425,3426,3427,3428,3429,3430,3431,3432,3433,3434,3435,3436,3437,3438,3439,3440,3441,3442,3443,3444,3445,3446,3447,3448,3449,3450,3451,3452,3453,3454,3455,3456,3457,3458,3459,3460,3461,3462,3463,3464,3465,3466,3467,3468,3469,3470,3471,3472,3473,3474,3475,3476,3477,3478,3479,3480,3481,3482,3483,3484,3485,3486,3487,3488,3489,3490,3491,3492,3493,3494,3495,3496,3497,3498,3499,3500,3501,3502,3503,3504,3505,3506,3507,3508,3509,3510,3511,3512,3513,3514,3515,3516,3517,3518,3519,3520,3521,3522,3523,3524,3525,3526,3527,3528,3529,3530,3531,3532,3533,3534,3535,3536,3537,3538,3539,3540,3541,3542,3543,3544,3545,3546,3547,3548,3549,3550,3551,3552,3553,3554,3555,3556,3557,3558,3559,3560,3561,3562,3563,3564,3565,3566,3567,3568,3569,3570,3571,3572,3573,3574,3575,3576,3577,3578,3579,3580,3581,3582,3583,3584,3585,3586,3587,3588,3589,3590,3591,3592,3593,3594,3595,3596,3597,3598,3599,3600,3601,3602,3603,3604,3605,3606,3607,3608,3609,3610,3611,3612,3613,3614,3615,3616,3617,3618,3619,3620,3621,3622,3623,3624,3625,3626,3627,3628,3629,3630,3631,3632,3633,3634,3635,3636,3637,3638,3639,3640,3641,3642,3643,3644,3645,3646,3647,3648,3649,3650,3651,3652,3653,3654,3655,3656,3657,3658,3659,3660,3661,3662,3663,3664,3665,3666,3667,3668,3669,3670,3671,3672,3673,3674,3675,3676,3677,3678,3679,3680,3681,3682,3683,3684,3685,3686,3687,3688,3689,3690,3691,3692,3693,3694,3695,3696,3697,3698,3699,3700,3701,3702,3703,3704,3705,3706,3707,3708,3709,3710,3711,3712,3713,3714,3715,3716,3717,3718,3719,3720,3721,3722,3723,3724,3725,3726,3727,3728,3729,3730,3731,3732,3733,3734,3735,3736,3737,3738,3739,3740,3741,3742,3743,3744,3745,3746,3747,3748,3749,3750,3751,3752,3753,3754,3755,3756,3757,3758,3759,3760,3761,3762,3763,3764,3765,3766,3767,3768,3769,3770,3771,3772,3773,3774,3775,3776,3777,3778,3779,3780,3781,3782,3783,3784,3785,3786,3787,3788,3789,3790,3791,3792,3793,3794,3795,3796,3797,3798,3799,3800,3801,3802,3803,3804,3805,3806,3807,3808,3809,3810,3811,3812,3813,3814,3815,3816,3817,3818,3819,3820,3821,3822,3823,3824,3825,3826,3827,3828,3829,3830,3831,3832,3833,3834,3835,3836,3837,3838,3839,3840,3841,3842,3843,3844,3845,3846,3847,3848,3849,3850,3851,3852,3853,3854,3855,3856,3857,3858,3859,3860,3861,3862,3863,3864,3865,3866,3867,3868,3869,3870,3871,3872,3873,3874,3875,3876,3877,3878,3879,3880,3881,3882,3883,3884,3885,3886,3887,3888,3889,3890,3891,3892,3893,3894,3895,3896,3897,3898,3899,3900,3901,3902,3903,3904,3905,3906,3907,3908,3909,3910,3911,3912,3913,3914,3915,3916,3917,3918,3919,3920,3921,3922,3923,3924,3925,3926,3927,3928,3929,3930,3931,3932,3933,3934,3935,3936,3937,3938,3939,3940,3941,3942,3943,3944,3945,3946,3947,3948,3949,3950,3951,3952,3953,3954,3955,3956,3957,3958,3959,3960,3961,3962,3963,3964,3965,3966,3967,3968,3969,3970,3971,3972,3973,3974,3975,3976,3977,3978,3979,3980,3981,3982,3983,3984,3985,3986,3987,3988,3989,3990,3991,3992,3993,3994,3995,3996,3997,3998,3999,4000,4001,4002,4003,4004,4005,4006,4007,4008,4009,4010,4011,4012,4013,4014,4015,4016,4017,4018,4019,4020,4021,4022,4023,4024,4025,4026,4027,4028,4029,4030,4031,4032,4033,4034,4035,4036,4037,4038,4039,4040,4041,4042,4043,4044,4045,4046,4047,4048,4049,4050,4051,4052,4053,4054,4055,4056,4057,4058,4059,4060,4061,4062,4063,4064,4065,4066,4067,4068,4069,4070,4071,4072,4073,4074,4075,4076,4077,4078,4079,4080,4081,4082,4083,4084,4085,4086,4087,4088,4089,4090,4091,4092,4093,4094,4095,4096,4097,4098,4099,4100,4101,4102,4103,4104,4105,4106,4107,4108,4109,4110,4111,4112,4113,4114,4115,4116,4117,4118,4119,4120,4121,4122,4123,4124,4125,4126,4127,4128,4129,4130,4131,4132,4133,4134,4135,4136,4137,4138,4139,4140,4141,4142,4143,4144,4145,4146,4147,4148,4149,4150,4151,4152,4153,4154,4155,4156,4157,4158,4159,4160,4161,4162,4163,4164,4165,4166,4167,4168,4169,4170,4171,4172,4173,4174,4175,4176,4177,4178,4179,4180,4181,4182,4183,4184,4185,4186,4187,4188,4189,4190,4191,4192,4193,4194,4195,4196,4197,4198,4199,4200,4201,4202,4203,4204,4205,4206,4207,4208,4209,4210,4211,4212,4213,4214,4215,4216,4217,4218,4219,4220,4221,4222,4223,4224,4225,4226,4227,4228,4229,4230,4231,4232,4233,4234,4235,4236,4237,4238,4239,4240,4241,4242,4243,4244,4245,4246,4247,4248,4249,4250,4251,4252,4253,4254,4255,4256,4257,4258,4259,4260,4261,4262,4263,4264,4265,4266,4267,4268,4269,4270,4271,4272,4273,4274,4275,4276,4277,4278,4279,4280,4281,4282,4283,4284,4285,4286,4287,4288,4289,4290,4291,4292,4293,4294,4295,4296,4297,4298,4299,4300,4301,4302,4303,4304,4305,4306,4307,4308,4309,4310,4311,4312,4313,4314,4315,4316,4317,4318,4319,4320,4321,4322,4323,4324,4325,4326,4327,4328,4329,4330,4331,4332,4333,4334,4335,4336,4337,4338,4339,4340,4341,4342,4343,4344,4345,4346,4347,4348,4349,4350,4351,4352,4353,4354,4355,4356,4357,4358,4359,4360,4361,4362,4363,4364,4365,4366,4367,4368,4369,4370,4371,4372,4373,4374,4375,4376,4377,4378,4379,4380,4381,4382,4383,4384,4385,4386,4387,4388,4389,4390,4391,4392,4393,4394,4395,4396,4397,4398,4399,4400,4401,4402,4403,4404,4405,4406,4407,4408,4409,4410,4411,4412,4413,4414,4415,4416,4417,4418,4419,4420,4421,4422,4423,4424,4425,4426,4427,4428,4429,4430,4431,4432,4433,4434,4435,4436,4437,4438,4439,4440,4441,4442,4443,4444,4445,4446,4447,4448,4449,4450,4451,4452,4453,4454,4455,4456,4457,4458,4459,4460,4461,4462,4463,4464,4465,4466,4467,4468,4469,4470,4471,4472,4473,4474,4475,4476,4477,4478,4479,4480,4481,4482,4483,4484,4485,4486,4487,4488,4489,4490,4491,4492,4493,4494,4495,4496,4497,4498,4499,4500,4501,4502,4503,4504,4505,4506,4507,4508,4509,4510,4511,4512,4513,4514,4515,4516,4517,4518,4519,4520,4521,4522,4523,4524,4525,4526,4527,4528,4529,4530,4531,4532,4533,4534,4535,4536,4537,4538,4539,4540,4541,4542,4543,4544,4545,4546,4547,4548,4549,4550,4551,4552,4553,4554,4555,4556,4557,4558,4559,4560,4561,4562,4563,4564,4565,4566,4567,4568,4569,4570,4571,4572,4573,4574,4575,4576,4577,4578,4579,4580,4581,4582,4583,4584,4585,4586,4587,4588,4589,4590,4591,4592,4593,4594,4595,4596,4597,4598,4599,4600,4601,4602,4603,4604,4605,4606,4607,4608,4609,4610,4611,4612,4613,4614,4615,4616,4617,4618,4619,4620,4621,4622,4623,4624,4625,4626,4627,4628,4629,4630,4631,4632,4633,4634,4635,4636,4637,4638,4639,4640,4641,4642,4643,4644,4645,4646,4647,4648,4649,4650,4651,4652,4653,4654,4655,4656,4657,4658,4659,4660,4661,4662,4663,4664,4665,4666,4667,4668,4669,4670,4671,4672,4673,4674,4675,4676,4677,4678,4679,4680,4681,4682,4683,4684,4685,4686,4687,4688,4689,4690,4691,4692,4693,4694,4695,4696,4697,4698,4699,4700,4701,4702,4703,4704,4705,4706,4707,4708,4709,4710,4711,4712,4713,4714,4715,4716,4717,4718,4719,4720,4721,4722,4723,4724,4725,4726,4727,4728,4729,4730,4731,4732,4733,4734,4735,4736,4737,4738,4739,4740,4741,4742,4743,4744,4745,4746,4747,4748,4749,4750,4751,4752,4753,4754,4755,4756,4757,4758,4759,4760,4761,4762,4763,4764,4765,4766,4767,4768,4769,4770,4771,4772,4773,4774,4775,4776,4777,4778,4779,4780,4781,4782,4783,4784,4785,4786,4787,4788,4789,4790,4791,4792,4793,4794,4795,4796,4797,4798,4799,4800,4801,4802,4803,4804,4805,4806,4807,4808,4809,4810,4811,4812,4813,4814,4815,4816,4817,4818,4819,4820,4821,4822,4823,4824,4825,4826,4827,4828,4829,4830,4831,4832,4833,4834,4835,4836,4837,4838,4839,4840,4841,4842,4843,4844,4845,4846,4847,4848,4849,4850,4851,4852,4853,4854,4855,4856,4857,4858,4859,4860,4861,4862,4863,4864,4865,4866,4867,4868,4869,4870,4871,4872,4873,4874,4875,4876,4877,4878,4879,4880,4881,4882,4883,4884,4885,4886,4887,4888,4889,4890,4891,4892,4893,4894,4895,4896,4897,4898,4899,4900,4901,4902,4903,4904,4905,4906,4907,4908,4909,4910,4911,4912,4913,4914,4915,4916,4917,4918,4919,4920,4921,4922,4923,4924,4925,4926,4927,4928,4929,4930,4931,4932,4933,4934,4935,4936,4937,4938,4939,4940,4941,4942,4943,4944,4945,4946,4947,4948,4949,4950,4951,4952,4953,4954,4955,4956,4957,4958,4959,4960,4961,4962,4963,4964,4965,4966,4967,4968,4969,4970,4971,4972,4973,4974,4975,4976,4977,4978,4979,4980,4981,4982,4983,4984,4985,4986,4987,4988,4989,4990,4991,4992,4993,4994,4995,4996,4997,4998,4999
43.0,241.42857142857144,182.4642857142857,204.85714285714283,193.625,297.25,273.85714285714283,164.46428571428572,177.41071428571428,87.35714285714285,222.5,235.85714285714283,191.14285714285714,137.5,159.85714285714286,338.4642857142857,90.71428571428571,127.5,60.92857142857142,241.60714285714283,204.9107142857143,174.55357142857144,176.03571428571428,89.57142857142857,212.125,292.375,196.69642857142858,385.0714285714286,105.85714285714285,239.35714285714283,372.0,170.375,171.85714285714286,84.17857142857143,317.57142857142856,115.21428571428571,248.42857142857142,201.625,149.85714285714286,288.75,187.39285714285714,200.4642857142857,131.0,173.4642857142857,172.82142857142856,122.42857142857142,192.58928571428572,95.51785714285714,142.85714285714286,165.92857142857142,161.92857142857142,184.5,292.2857142857143,449.23214285714283,434.5,235.28571428571428,320.1428571428571,87.58928571428571,128.30357142857144,247.82142857142856,183.0,136.60714285714286,306.0,210.32142857142856,211.92857142857142,468.48214285714283,187.92857142857142,168.57142857142858,263.75,446.57142857142856,227.14285714285714,158.57142857142856,217.57142857142856,203.75,257.1428571428571,174.10714285714286,180.98214285714286,372.32142857142856,163.48214285714286,239.57142857142856,85.10714285714285,215.5,248.0,336.6964285714286,289.625,219.64285714285714,285.0,176.25,238.5,346.9642857142857,344.4642857142857,210.875,289.75,358.0714285714286,481.71428571428567,210.64285714285714,215.14285714285714,162.67857142857144,112.28571428571428,373.17857142857144,274.375,158.64285714285714,299.125,214.7142857142857,102.85714285714285,381.6071428571429,243.64285714285714,170.625,256.3928571428571,331.0,153.35714285714286,293.2857142857143,291.6964285714286,119.21428571428571,161.28571428571428,163.60714285714286,161.16071428571428,162.41071428571428,300.625,165.98214285714286,436.7857142857143,178.03571428571428,275.2857142857143,170.35714285714286,170.78571428571428,224.78571428571428,191.69642857142858,217.14285714285714,139.82142857142858,381.85714285714283,268.75,296.75,213.7142857142857,285.26785714285717,224.14285714285714,157.17857142857142,195.25,253.875,291.8571428571429,245.75,211.28571428571428,79.33928571428571,183.57142857142858,456.10714285714283,156.42857142857142,188.25,167.41071428571428,247.5,171.42857142857142,161.14285714285714,294.1071428571429,183.66071428571428,331.25,105.375,211.28571428571428,58.535714285714285,251.375,373.66071428571433,245.89285714285714,210.98214285714286,256.9821428571429,371.44642857142856,107.5,158.21428571428572,165.10714285714286,129.85714285714286,71.96428571428571,154.64285714285714,348.26785714285717,182.57142857142856,121.07142857142857,376.75,138.85714285714286,203.03571428571428,148.03571428571428,240.14285714285714,314.3571428571429,400.5,164.57142857142856,59.357142857142854,315.0,193.125,238.875,275.0,167.14285714285714,164.57142857142856,163.57142857142856,349.8392857142857,254.42857142857142,74.75,112.71428571428571,231.125,210.7142857142857,246.96428571428572,209.10714285714286,181.92857142857142,357.0,142.5,256.3928571428571,352.19642857142856,190.44642857142858,228.57142857142856,313.57142857142856,103.21428571428571,227.5,89.625,176.89285714285714,191.625,113.28571428571428,68.67857142857143,323.0357142857143,286.25,183.83928571428572,204.625,145.35714285714286,267.5,196.0,127.92857142857142,143.125,258.0,205.625,334.0,268.7142857142857,502.125,110.85714285714285,356.625,363.8571428571429,78.82142857142857,223.92857142857142,274.1428571428571,240.875,277.39285714285717,211.5,151.39285714285714,150.89285714285714,238.14285714285714,380.1428571428571,274.64285714285717,156.28571428571428,129.42857142857142,219.75,188.125,320.7142857142857,225.0,235.44642857142858,134.19642857142858,248.57142857142856,139.82142857142858,227.57142857142856,402.14285714285717,39.80357142857142,132.41071428571428,144.7142857142857,303.2857142857143,260.7142857142857,184.92857142857142,135.89285714285714,219.0,229.7142857142857,245.7142857142857,155.17857142857144,90.85714285714285,368.75,261.25,207.94642857142858,207.57142857142856,291.25,116.35714285714285,28.767857142857142,138.85714285714286,266.7142857142857,253.92857142857144,223.0,575.4821428571429,204.01785714285714,437.57142857142856,133.7142857142857,324.10714285714283,340.3571428571429,149.28571428571428,117.64285714285714,353.89285714285717,228.10714285714283,65.92857142857143,216.42857142857144,188.66071428571428,179.89285714285714,190.5,225.375,131.57142857142856,384.91071428571433,305.17857142857144,112.66071428571428,437.5,312.1071428571429,178.7142857142857,288.125,155.57142857142856,88.92857142857143,159.10714285714286,118.57142857142857,184.64285714285714,60.64285714285714,253.28571428571428,367.55357142857144,215.57142857142856,240.42857142857144,103.28571428571428,254.57142857142858,307.28571428571433,313.0357142857143,212.375,313.25,132.14285714285714,244.14285714285714,142.17857142857142,174.2142857142857,150.17857142857144,190.39285714285714,203.57142857142856,253.6071428571429,283.92857142857144,96.375,246.5357142857143,310.7142857142857,225.85714285714283,130.2142857142857,247.50000000000003,181.60714285714286,287.51785714285717,341.42857142857144,139.64285714285714,346.69642857142856,138.14285714285714,154.91071428571428,386.03571428571433,268.75,405.16071428571433,275.375,203.25,120.48214285714285,134.35714285714286,70.21428571428571,223.125,322.0714285714286,211.7142857142857,403.57142857142856,239.67857142857142,87.48214285714285,106.85714285714285,270.75,147.76785714285714,171.42857142857144,434.1071428571429,254.57142857142858,127.21428571428571,77.03571428571428,187.14285714285714,176.89285714285714,209.625,195.0,251.42857142857142,157.14285714285714,78.26785714285714,226.28571428571428,170.98214285714286,189.75,247.42857142857142,88.125,273.8571428571429,32.982142857142854,261.57142857142856,284.85714285714283,304.4642857142857,125.64285714285714,178.5,141.0,268.60714285714283,217.42857142857142,104.64285714285714,268.57142857142856,150.14285714285714,220.5,254.25,329.57142857142856,317.57142857142856,269.25,256.17857142857144,128.78571428571428,398.92857142857144,186.75,187.60714285714283,160.625,232.23214285714286,243.64285714285714,263.25,172.75,323.2857142857143,221.25,338.57142857142856,180.89285714285714,221.75,351.6071428571429,334.85714285714283,194.875,271.0,177.35714285714286,250.0,235.17857142857142,240.85714285714283,189.75,272.7321428571429,286.7142857142857,148.66071428571428,615.0,263.35714285714283,247.50000000000003,391.07142857142856,253.92857142857144,199.875,327.2857142857143,426.6428571428571,245.28571428571428,67.64285714285714,271.125,327.8571428571429,250.60714285714283,341.01785714285717,210.57142857142856,166.69642857142858,163.42857142857142,278.85714285714283,63.82142857142857,131.25,243.80357142857144,278.375,234.14285714285714,267.5,299.2857142857143,180.53571428571428,102.80357142857142,255.85714285714283,304.7142857142857,363.53571428571433,331.85714285714283,165.85714285714286,180.26785714285714,190.53571428571428,189.75,232.75,284.9464285714286,140.53571428571428,172.39285714285714,144.14285714285714,116.46428571428571,164.10714285714286,261.375,94.39285714285714,162.05357142857144,146.78571428571428,90.58928571428571,182.23214285714286,288.16071428571433,106.42857142857142,177.5,245.0,163.57142857142858,205.125,384.1071428571429,188.89285714285714,175.14285714285714,277.375,120.14285714285714,141.96428571428572,208.42857142857142,158.14285714285714,165.0,207.42857142857142,206.03571428571428,266.7857142857143,203.89285714285714,169.375,292.0,293.0,378.57142857142856,62.92857142857142,142.58928571428572,241.5,205.39285714285714,186.69642857142858,141.85714285714286,156.16071428571428,271.25,319.82142857142856,245.4107142857143,152.25,155.92857142857142,133.85714285714286,234.875,250.85714285714283,147.85714285714286,244.60714285714283,175.80357142857144,127.85714285714286,98.78571428571428,334.0,120.48214285714285,286.0,281.75,176.35714285714286,88.82142857142857,193.625,197.5,242.14285714285714,371.5714285714286,415.2857142857143,269.875,132.14285714285714,267.625,235.0,182.03571428571428,160.35714285714286,113.0,285.375,221.33928571428572,298.57142857142856,125.21428571428571,150.80357142857144,238.0,325.875,226.14285714285714,226.5,221.125,89.57142857142857,64.0,187.7142857142857,202.5,166.07142857142856,188.89285714285714,92.57142857142857,359.0,173.35714285714286,288.75,236.42857142857142,177.41071428571428,127.35714285714285,184.07142857142856,351.4107142857143,228.32142857142856,161.25,343.2857142857143,130.28571428571428,100.71428571428571,264.375,255.75,144.2142857142857,197.32142857142858,278.125,309.2857142857143,282.5,275.85714285714283,127.5,370.125,241.17857142857142,86.83928571428571,138.125,159.19642857142858,206.25,121.57142857142857,221.5,302.78571428571433,115.07142857142857,178.64285714285714,179.91071428571428,72.58928571428571,273.0,289.375,312.0,390.17857142857144,336.05357142857144,107.85714285714286,205.25,385.0,127.14285714285714,251.4642857142857,381.85714285714283,304.39285714285717,201.2142857142857,197.375,362.35714285714283,265.8214285714286,433.75,154.19642857142858,109.14285714285714,212.625,165.08928571428572,97.17857142857142,95.78571428571428,255.85714285714283,133.48214285714286,398.39285714285717,338.78571428571433,243.64285714285714,155.0,282.2857142857143,233.25,169.82142857142856,304.0,202.5,168.39285714285714,169.01785714285714,194.78571428571428,115.42857142857142,357.1071428571429,77.42857142857143,212.28571428571428,176.25,193.75,176.0,204.0,172.23214285714286,191.25,372.71428571428567,236.75,215.75,65.53571428571428,252.28571428571428,59.785714285714285,105.35714285714285,307.5,202.5,137.32142857142858,164.14285714285714,239.25,297.4821428571429,282.5,120.57142857142857,274.01785714285717,244.76785714285717,176.69642857142858,295.55357142857144,393.05357142857144,361.2142857142857,110.83928571428571,190.53571428571428,212.78571428571428,150.07142857142856,199.82142857142858,334.57142857142856,326.5714285714286,140.85714285714286,413.2142857142857,55.21428571428571,179.57142857142856,227.0,199.7142857142857,253.625,207.2142857142857,225.375,117.92857142857142,123.71428571428571,203.57142857142856,138.53571428571428,172.60714285714286,270.625,276.625,179.14285714285714,256.7142857142857,236.35714285714283,201.10714285714283,186.25,313.875,78.35714285714285,121.92857142857142,156.07142857142856,173.89285714285714,181.60714285714286,214.14285714285714,392.62500000000006,162.35714285714286,122.21428571428571,223.25,96.85714285714285,190.07142857142856,181.875,375.5892857142857,401.8928571428571,271.0,193.17857142857142,329.4285714285714,168.75,397.9642857142857,285.91071428571433,297.57142857142856,165.7142857142857,83.14285714285714,277.55357142857144,323.2142857142857,230.0,221.33928571428572,191.67857142857142,217.5,123.21428571428571,364.8214285714286,242.42857142857142,188.85714285714283,174.01785714285714,250.89285714285714,218.5,216.2142857142857,357.1428571428571,275.17857142857144,212.14285714285714,321.25,195.625,147.0,349.7142857142857,333.4821428571429,230.25,228.5357142857143,224.57142857142856,341.3928571428571,269.2857142857143,463.39285714285717,263.25,258.125,190.44642857142858,260.3571428571429,120.0,121.64285714285714,244.125,153.03571428571428,208.875,462.5892857142857,261.85714285714283,275.78571428571433,187.5,323.2857142857143,126.14285714285714,390.0,178.2142857142857,352.19642857142856,268.0,255.0,302.625,205.85714285714283,244.7142857142857,302.375,293.85714285714283,189.64285714285714,159.01785714285714,332.57142857142856,173.125,141.07142857142858,280.4464285714286,136.7142857142857,108.07142857142857,98.03571428571428,235.25,164.67857142857142,193.5,104.73214285714285,116.21428571428571,268.125,292.17857142857144,204.75,589.6428571428571,247.5,240.32142857142856,261.375,146.875,150.98214285714286,192.32142857142856,198.75,200.25,223.85714285714283,146.60714285714286,258.32142857142856,177.25,82.44642857142857,300.0,267.625,90.0,165.10714285714286,151.875,271.0,271.875,234.28571428571428,266.125,174.32142857142856,123.0,211.25,422.67857142857144,0.0,227.7142857142857,177.5,152.41071428571428,152.23214285714286,311.375,231.625,95.73214285714285,375.375,209.625,209.73214285714286,346.9642857142857,171.96428571428572,169.28571428571428,336.07142857142856,208.0,122.14285714285714,123.69642857142857,216.64285714285714,290.0,196.375,195.0,160.98214285714286,173.30357142857144,187.5,238.57142857142858,88.76785714285714,176.25,192.75,129.19642857142858,181.5,179.03571428571428,127.64285714285714,53.92857142857142,227.67857142857142,266.625,271.1428571428571,343.85714285714283,235.7142857142857,335.17857142857144,385.17857142857144,276.7142857142857,277.0,214.375,92.83928571428571,285.5892857142857,134.10714285714286,145.26785714285714,235.39285714285714,261.85714285714283,354.53571428571433,261.4285714285714,194.25,194.82142857142858,222.125,385.5892857142857,313.625,182.75,354.53571428571433,323.2857142857143,177.75,215.14285714285714,205.5,104.78571428571428,196.25,149.78571428571428,201.07142857142858,462.89285714285717,200.78571428571428,30.732142857142854,313.57142857142856,350.85714285714283,272.89285714285717,246.85714285714283,124.73214285714286,198.03571428571428,325.57142857142856,235.85714285714283,234.57142857142856,223.28571428571428,232.75,136.5,64.0,161.89285714285714,126.16071428571428,278.4285714285714,172.5,207.25,201.0,227.89285714285714,165.85714285714286,352.7142857142857,288.2857142857143,188.67857142857142,381.0,203.57142857142856,206.60714285714286,223.28571428571428,287.1428571428571,505.2857142857143,340.80357142857144,202.76785714285714,416.4642857142857,160.80357142857144,289.92857142857144,157.41071428571428,290.25,540.8928571428571,220.625,316.6428571428571,232.28571428571428,177.64285714285714,209.64285714285714,119.78571428571428,72.25,94.875,149.03571428571428,246.375,335.7857142857143,177.75,284.625,265.5,129.07142857142856,168.78571428571428,171.60714285714286,285.125,171.2142857142857,163.48214285714286,364.0,265.82142857142856,125.98214285714286,169.39285714285714,243.57142857142856,193.75,90.85714285714285,448.07142857142856,158.03571428571428,293.0,223.7142857142857,124.71428571428571,299.625,402.6428571428571,191.14285714285714,97.875,190.71428571428572,57.17857142857142,103.07142857142857,167.875,178.5,326.2857142857143,216.14285714285714,213.64285714285714,417.14285714285717,368.67857142857144,72.5,164.46428571428572,150.7142857142857,129.55357142857144,161.78571428571428,321.91071428571433,220.17857142857144,169.60714285714286,296.4285714285714,177.78571428571428,372.6428571428571,164.85714285714286,193.17857142857142,207.0,154.19642857142858,241.125,121.07142857142857,126.69642857142857,129.0,216.42857142857144,152.57142857142856,129.14285714285714,140.35714285714286,318.7142857142857,171.07142857142858,226.17857142857142,569.5,301.0,119.07142857142857,105.42857142857142,197.03571428571428,294.57142857142856,221.875,173.92857142857142,360.5357142857143,144.82142857142858,213.25,217.25,166.78571428571428,120.57142857142857,127.92857142857142,151.2142857142857,407.41071428571433,163.83928571428572,160.35714285714286,156.25,193.82142857142856,234.85714285714283,120.5,282.8571428571429,182.0,258.26785714285717,105.35714285714285,441.0,293.4642857142857,354.57142857142856,278.1428571428571,267.85714285714283,297.0,327.67857142857144,226.375,148.83928571428572,171.53571428571428,192.64285714285714,151.07142857142856,190.17857142857144,225.0,278.57142857142856,311.625,222.0,72.32142857142857,113.41071428571428,96.96428571428571,253.14285714285714,221.03571428571428,308.57142857142856,224.14285714285714,126.92857142857142,327.2142857142857,269.0,331.55357142857144,205.42857142857142,204.10714285714283,236.7142857142857,63.96428571428571,265.9285714285714,183.03571428571428,353.7321428571429,343.28571428571433,160.78571428571428,339.2857142857143,158.66071428571428,242.14285714285714,188.14285714285714,201.96428571428572,233.42857142857142,305.0,249.42857142857142,91.5,399.3392857142857,134.01785714285714,147.92857142857142,107.46428571428571,374.14285714285717,148.75,208.39285714285714,263.25,206.4642857142857,87.64285714285714,262.0,334.82142857142856,144.19642857142858,238.42857142857142,253.0,188.25,195.75,286.9642857142857,102.05357142857142,313.7142857142857,129.53571428571428,187.60714285714283,147.85714285714286,178.75,130.60714285714286,146.28571428571428,252.375,91.85714285714285,336.6964285714286,264.1428571428571,397.9642857142857,106.78571428571428,286.375,279.16071428571433,133.2142857142857,246.37500000000003,179.78571428571428,301.8214285714286,59.107142857142854,306.3214285714286,137.42857142857142,276.625,163.39285714285714,123.71428571428571,120.42857142857142,171.33928571428572,235.42857142857142,378.16071428571433,358.7142857142857,168.83928571428572,153.39285714285714,290.0,181.7142857142857,135.89285714285714,221.875,235.82142857142856,187.23214285714286,165.89285714285714,198.57142857142856,205.92857142857142,309.0,192.53571428571428,282.2142857142857,201.0,147.23214285714286,110.28571428571428,164.64285714285714,130.25,204.42857142857142,202.76785714285714,276.25,252.64285714285714,321.9642857142857,179.25,207.375,176.07142857142858,299.1071428571429,136.33928571428572,96.10714285714285,61.01785714285714,343.55357142857144,242.125,234.625,115.0,368.75,170.08928571428572,138.7142857142857,217.7142857142857,183.875,230.57142857142856,341.9642857142857,304.57142857142856,138.85714285714286,136.96428571428572,136.7142857142857,296.875,360.89285714285717,238.92857142857142,242.0,168.85714285714286,168.28571428571428,321.35714285714283,333.57142857142856,410.62500000000006,176.57142857142856,116.85714285714285,241.125,121.125,288.3214285714286,191.67857142857142,294.1428571428571,153.5,97.85714285714285,242.75,238.0,182.67857142857142,279.875,218.875,102.85714285714285,157.14285714285714,237.53571428571428,178.48214285714286,251.75,195.10714285714283,424.4642857142857,206.35714285714283,97.01785714285714,283.5,266.0,225.0,156.0,146.51785714285714,155.53571428571428,127.76785714285714,261.1607142857143,145.98214285714286,276.1071428571429,267.5357142857143,262.75,130.42857142857142,252.42857142857142,199.57142857142856,154.5,257.7857142857143,320.7142857142857,168.07142857142856,170.25,272.375,85.39285714285714,224.0,147.10714285714286,38.910714285714285,232.55357142857144,253.625,202.5,88.33928571428571,259.7142857142857,162.42857142857142,111.42857142857142,286.0,341.57142857142856,346.5,253.6071428571429,194.125,268.125,213.10714285714286,183.75,153.21428571428572,242.28571428571428,204.64285714285714,222.2142857142857,218.14285714285714,186.85714285714283,65.92857142857143,99.80357142857142,304.375,262.0,351.9642857142857,202.94642857142858,190.71428571428572,284.5,231.7142857142857,261.85714285714283,274.4285714285714,122.21428571428571,175.0,156.57142857142856,72.80357142857143,201.75,157.76785714285714,152.58928571428572,321.26785714285717,192.0,218.14285714285714,137.14285714285714,160.0,429.0,283.0357142857143,173.57142857142856,173.4642857142857,130.44642857142858,99.28571428571428,295.0714285714286,194.67857142857142,197.94642857142858,328.07142857142856,154.64285714285714,146.96428571428572,202.41071428571428,212.42857142857142,285.85714285714283,259.0,204.42857142857142,149.82142857142858,220.875,237.75,243.42857142857142,186.10714285714283,130.17857142857142,445.71428571428567,209.25,118.125,67.35714285714285,127.14285714285714,186.0,53.357142857142854,282.05357142857144,184.60714285714283,271.4464285714286,171.9642857142857,403.75,259.1071428571429,143.57142857142858,143.03571428571428,386.07142857142856,306.7857142857143,124.0,243.96428571428572,223.875,149.64285714285714,338.30357142857144,152.07142857142856,229.01785714285717,161.14285714285714,164.2142857142857,236.14285714285714,340.80357142857144,301.1428571428571,268.2857142857143,307.8571428571429,240.125,180.9642857142857,173.125,273.2857142857143,299.0,143.03571428571428,165.0,317.4285714285714,198.92857142857144,129.46428571428572,385.17857142857144,197.58928571428572,80.625,243.75,271.57142857142856,420.17857142857144,140.7142857142857,242.0,224.67857142857142,435.4285714285714,347.57142857142856,264.32142857142856,256.01785714285717,233.25,176.07142857142858,291.6071428571429,145.07142857142856,116.25,39.107142857142854,296.6071428571429,450.75,167.05357142857144,142.5,217.28571428571428,226.82142857142856,166.33928571428572,230.26785714285714,212.57142857142856,62.285714285714285,118.64285714285714,132.92857142857142,252.00000000000003,186.60714285714286,388.6071428571429,221.4642857142857,117.57142857142857,143.2142857142857,201.5,270.75,205.26785714285714,222.2142857142857,95.03571428571428,113.28571428571428,114.64285714285714,395.51785714285717,143.92857142857144,293.92857142857144,87.78571428571428,359.7142857142857,361.2857142857143,224.10714285714286,317.4285714285714,168.125,172.875,213.48214285714286,266.94642857142856,301.0,109.125,114.0,217.125,194.35714285714283,238.7142857142857,304.875,159.01785714285714,176.89285714285714,188.14285714285714,255.0,298.0,275.0,165.0,109.44642857142857,266.25,179.03571428571428,309.375,259.55357142857144,160.57142857142856,246.25,160.85714285714286,318.92857142857144,370.2857142857143,302.4285714285714,214.125,352.125,85.23214285714285,174.85714285714286,29.857142857142854,165.89285714285714,310.85714285714283,133.66071428571428,333.57142857142856,311.7142857142857,209.625,228.37500000000003,212.625,181.7142857142857,231.875,235.57142857142856,225.48214285714286,195.42857142857142,210.32142857142856,236.03571428571428,288.64285714285717,313.75,146.25,164.64285714285714,134.7142857142857,363.375,366.42857142857144,206.375,197.25,100.76785714285714,224.0,252.25,468.6428571428571,140.0,220.17857142857142,269.875,155.78571428571428,150.42857142857142,180.75,82.39285714285714,302.1428571428571,208.28571428571428,121.14285714285714,60.285714285714285,121.23214285714285,266.7142857142857,193.82142857142856,429.82142857142856,541.875,160.39285714285714,226.0,217.625,119.71428571428571,90.10714285714285,318.0,348.2857142857143,229.75,159.91071428571428,336.375,193.83928571428572,63.285714285714285,172.28571428571428,190.7142857142857,342.57142857142856,327.0,64.10714285714285,224.14285714285714,181.39285714285714,263.7857142857143,337.3392857142857,222.875,149.73214285714286,257.625,234.0,197.5,144.78571428571428,169.7142857142857,213.42857142857142,192.85714285714283,157.23214285714286,337.14285714285717,171.9642857142857,66.25,183.66071428571428,94.875,233.42857142857142,228.25,168.42857142857142,200.375,336.0,293.75,167.76785714285714,161.875,273.2142857142857,262.5,155.78571428571428,305.57142857142856,165.42857142857142,267.1071428571429,195.53571428571428,256.9821428571429,209.25,197.4642857142857,175.60714285714286,194.42857142857142,135.625,298.1428571428571,237.0,152.35714285714286,250.375,156.78571428571428,318.2142857142857,465.5,229.17857142857144,324.2857142857143,221.14285714285714,129.2142857142857,227.75,362.0892857142857,87.48214285714285,153.39285714285714,264.2857142857143,118.78571428571428,269.625,244.85714285714283,317.1428571428571,207.0,363.98214285714283,207.53571428571428,196.28571428571428,101.83928571428571,149.73214285714286,277.8571428571429,318.2142857142857,203.21428571428572,268.125,496.7857142857143,389.5178571428571,361.92857142857144,249.9107142857143,176.4642857142857,276.25,60.21428571428571,105.42857142857142,121.07142857142857,312.32142857142856,153.92857142857144,197.05357142857144,425.7857142857143,245.14285714285714,270.4821428571429,150.44642857142858,228.64285714285714,231.85714285714283,207.94642857142858,153.85714285714286,89.625,121.57142857142857,198.64285714285714,133.57142857142858,134.89285714285714,265.25,159.55357142857144,193.5,386.1964285714286,148.83928571428572,95.35714285714285,405.0,200.78571428571428,53.64285714285714,146.16071428571428,277.75,182.14285714285714,342.64285714285717,170.625,131.7142857142857,119.625,342.64285714285717,111.75,112.71428571428571,275.625,275.75,60.89285714285714,56.89285714285714,245.42857142857142,194.78571428571428,190.82142857142856,176.51785714285714,86.19642857142857,90.05357142857143,119.92857142857142,211.25,120.64285714285714,215.7142857142857,131.7142857142857,211.375,138.125,179.03571428571428,187.17857142857142,195.75,344.2857142857143,291.375,321.0,308.7321428571429,98.78571428571428,288.875,62.25,219.0,346.5,201.9642857142857,174.64285714285714,123.35714285714285,230.0,329.78571428571433,136.51785714285714,205.5,300.8571428571429,287.8392857142857,224.14285714285714,309.85714285714283,263.2142857142857,188.25,258.85714285714283,230.7857142857143,168.2142857142857,168.48214285714286,127.92857142857142,112.92857142857142,122.78571428571428,446.1428571428571,401.42857142857144,123.66071428571429,367.7142857142857,295.25,267.42857142857144,316.4285714285714,278.57142857142856,30.08928571428571,189.85714285714283,285.0,318.0357142857143,189.42857142857142,117.92857142857142,211.92857142857142,238.0,222.2142857142857,421.73214285714283,211.17857142857142,122.5,101.78571428571428,76.07142857142857,224.67857142857142,327.67857142857144,117.78571428571428,142.85714285714286,161.42857142857144,144.46428571428572,221.42857142857142,135.64285714285714,57.357142857142854,256.7142857142857,127.32142857142857,147.0,97.5,87.69642857142857,138.64285714285714,119.625,282.75,467.69642857142856,255.28571428571428,338.39285714285717,416.23214285714283,160.25,426.8571428571429,245.08928571428572,214.5,320.57142857142856,153.2142857142857,111.92857142857142,233.35714285714286,288.25,184.17857142857142,175.17857142857144,343.55357142857144,371.9642857142857,175.25,282.4642857142857,227.625,32.732142857142854,317.89285714285717,353.7321428571429,251.0,193.39285714285714,189.82142857142858,185.0,238.39285714285714,281.2857142857143,133.85714285714286,157.7142857142857,189.125,147.42857142857142,100.76785714285714,236.75,290.5714285714286,303.5,319.4642857142857,252.32142857142858,113.28571428571428,365.0,333.3214285714286,283.17857142857144,184.7142857142857,258.7142857142857,177.67857142857144,377.14285714285717,106.66071428571428,283.85714285714283,342.0,97.66071428571428,305.5357142857143,281.5714285714286,122.57142857142857,163.03571428571428,293.2857142857143,187.85714285714286,226.875,247.5,232.125,115.28571428571428,153.53571428571428,302.875,242.75,415.0,146.7142857142857,416.35714285714283,193.0,165.0,309.875,313.7142857142857,335.1428571428571,181.28571428571428,243.64285714285717,196.5,289.57142857142856,226.92857142857144,206.875,228.5,292.9821428571429,391.48214285714283,277.55357142857144,197.625,217.0,319.4285714285714,148.92857142857144,277.75,267.75,125.42857142857142,154.82142857142858,174.9642857142857,220.25,282.2857142857143,215.57142857142856,241.85714285714283,228.0,61.32142857142857,153.48214285714286,177.875,115.14285714285714,231.57142857142856,315.4285714285714,200.5,174.2142857142857,138.75,137.92857142857142,191.69642857142858,325.92857142857144,256.8214285714286,215.75,161.25,216.375,161.78571428571428,218.0,337.5,197.5,30.32142857142857,184.5,289.25,264.85714285714283,191.96428571428572,116.42857142857142,167.35714285714286,180.10714285714286,165.85714285714286,144.28571428571428,113.71428571428571,152.28571428571428,176.4642857142857,233.14285714285714,162.76785714285714,151.96428571428572,172.5,125.57142857142857,226.875,295.0357142857143,86.625,66.03571428571428,78.375,402.91071428571433,257.375,342.7142857142857,157.76785714285714,207.85714285714283,151.0,316.25,143.35714285714286,148.57142857142858,152.94642857142858,427.82142857142856,226.28571428571428,161.35714285714286,268.57142857142856,139.35714285714286,137.14285714285714,123.69642857142857,251.85714285714283,195.9642857142857,147.32142857142858,437.5,236.14285714285714,229.5,313.2857142857143,389.1071428571429,60.89285714285714,166.07142857142856,227.625,179.19642857142858,212.35714285714283,96.53571428571428,332.94642857142856,254.375,273.2142857142857,180.28571428571428,280.4285714285714,38.76785714285714,274.07142857142856,107.07142857142857,199.7142857142857,130.07142857142856,268.55357142857144,154.7142857142857,276.2857142857143,373.0357142857143,159.10714285714286,336.2857142857143,164.57142857142856,111.35714285714285,181.0,101.03571428571428,280.5,279.25,154.28571428571428,203.25,176.4642857142857,291.8571428571429,59.107142857142854,294.7142857142857,258.2142857142857,382.5,147.41071428571428,239.5,85.17857142857143,180.9642857142857,187.28571428571428,210.75,185.625,177.85714285714286,209.0,210.25,201.69642857142858,293.92857142857144,308.125,97.5,324.2857142857143,181.17857142857142,157.28571428571428,137.76785714285714,190.92857142857142,287.1964285714286,173.48214285714286,132.85714285714286,291.7857142857143,265.75,239.89285714285714,190.625,78.89285714285714,268.57142857142856,207.125,398.0892857142857,316.2857142857143,241.75,249.0,199.75,127.78571428571428,217.76785714285714,343.92857142857144,229.375,345.8571428571429,197.75,107.19642857142857,262.92857142857144,118.21428571428571,242.19642857142858,229.875,324.7142857142857,210.5,212.5,125.94642857142857,201.5,213.875,195.53571428571428,467.75,197.125,133.14285714285714,130.42857142857142,148.7142857142857,189.55357142857144,198.21428571428572,222.28571428571428,301.0,132.07142857142856,147.92857142857142,242.57142857142856,127.21428571428571,270.80357142857144,151.78571428571428,186.375,272.25,231.42857142857142,190.92857142857142,193.83928571428572,435.17857142857144,261.07142857142856,128.78571428571428,407.7857142857143,231.14285714285714,243.14285714285714,256.0,217.375,258.6428571428571,223.07142857142856,146.2142857142857,156.14285714285714,247.01785714285717,204.57142857142856,190.0,126.16071428571429,203.25,126.14285714285714,214.75,149.19642857142858,161.25,168.35714285714286,232.42857142857142,303.75,303.92857142857144,278.75,291.53571428571433,262.0,276.2857142857143,259.7142857142857,252.42857142857142,181.07142857142856,395.80357142857144,186.25,58.82142857142857,246.57142857142856,203.14285714285714,113.71428571428571,162.32142857142856,226.17857142857142,205.5,237.57142857142856,257.30357142857144,245.375,248.875,210.10714285714283,189.28571428571428,101.57142857142857,316.125,345.8571428571429,64.875,160.85714285714286,115.17857142857143,252.64285714285717,225.85714285714283,112.14285714285714,190.39285714285714,75.91071428571428,280.25,147.85714285714286,279.0,329.9464285714286,351.7857142857143,154.64285714285714,416.25,239.57142857142856,190.375,130.64285714285714,118.21428571428571,72.21428571428571,223.375,156.33928571428572,290.17857142857144,139.64285714285714,287.75,223.60714285714283,136.28571428571428,251.0,154.7142857142857,237.42857142857142,261.2857142857143,270.0,278.3571428571429,177.42857142857142,179.89285714285714,449.23214285714283,198.125,231.875,239.875,193.7142857142857,277.35714285714283,323.2142857142857,198.83928571428572,234.625,316.6428571428571,125.14285714285714,182.76785714285714,297.0,276.2857142857143,270.1607142857143,197.85714285714286,293.125,254.625,211.25,153.30357142857144,148.125,237.0,147.0,127.07142857142857,209.42857142857142,215.625,269.625,340.0,232.7142857142857,111.21428571428571,178.92857142857142,370.125,403.9285714285714,137.5,243.85714285714283,235.875,255.14285714285714,168.875,246.375,296.07142857142856,85.875,209.78571428571428,263.4285714285714,220.5,363.39285714285717,117.78571428571428,302.78571428571433,224.35714285714283,181.25,190.60714285714283,230.17857142857144,243.96428571428572,308.19642857142856,230.5,242.0,200.25,241.57142857142856,231.0,158.92857142857144,118.71428571428571,196.17857142857142,243.03571428571428,212.75,164.25,495.625,292.67857142857144,335.0,219.85714285714283,358.75,316.57142857142856,240.75,118.21428571428572,286.98214285714283,130.64285714285714,198.30357142857144,269.2857142857143,113.46428571428571,134.73214285714286,125.35714285714285,230.25,294.5892857142857,117.96428571428571,157.67857142857144,325.48214285714283,103.07142857142857,226.875,181.60714285714286,362.89285714285717,404.64285714285717,255.125,313.9285714285714,252.28571428571428,173.78571428571428,182.5,303.4285714285714,158.64285714285714,298.6071428571429,228.9642857142857,193.07142857142856,167.76785714285714,364.9821428571429,179.55357142857144,316.2857142857143,243.32142857142858,393.01785714285717,264.57142857142856,143.57142857142858,208.57142857142856,167.23214285714286,113.92857142857142,95.21428571428571,242.28571428571428,104.14285714285714,240.57142857142856,219.85714285714283,226.42857142857142,63.21428571428571,178.75,147.35714285714286,193.39285714285714,168.7142857142857,73.10714285714285,160.625,154.64285714285714,293.57142857142856,174.10714285714286,273.57142857142856,137.28571428571428,460.1071428571429,299.5,106.39285714285714,146.33928571428572,121.35714285714285,233.0,503.75,194.0,418.57142857142856,350.0357142857143,164.46428571428572,207.75,242.75,275.75,178.39285714285714,332.2857142857143,152.67857142857144,199.07142857142856,252.375,117.5,459.05357142857144,553.5,399.82142857142856,118.71428571428571,86.71428571428571,309.7142857142857,56.5,184.91071428571428,183.375,171.92857142857142,284.57142857142856,178.75,391.8571428571429,157.7142857142857,256.01785714285717,174.2142857142857,154.01785714285714,223.28571428571428,184.64285714285714,171.0,338.30357142857144,140.57142857142856,81.46428571428571,245.25,164.19642857142858,175.60714285714286,345.375,171.51785714285714,379.5,141.51785714285714,393.75000000000006,225.35714285714286,160.17857142857144,364.82142857142856,138.57142857142856,165.64285714285714,235.7142857142857,350.7142857142857,234.125,450.4285714285714,221.25,255.625,171.85714285714286,223.125,309.25,457.2857142857143,187.0,207.42857142857142,159.82142857142858,179.35714285714286,169.92857142857142,55.357142857142854,172.23214285714286,174.19642857142858,221.0,155.08928571428572,244.39285714285714,87.5,160.2142857142857,133.92857142857142,183.85714285714283,296.03571428571433,281.625,179.67857142857142,226.125,301.3392857142857,146.5,150.35714285714286,266.625,133.0,363.375,169.875,92.25,236.67857142857142,275.625,263.75,193.25,161.64285714285714,239.85714285714283,367.5,203.75,247.0,62.285714285714285,274.4285714285714,240.85714285714283,506.98214285714283,170.67857142857142,305.4285714285714,120.07142857142857,155.08928571428572,220.875,215.4642857142857,212.03571428571428,242.7142857142857,69.5,197.14285714285714,197.85714285714286,222.875,123.91071428571428,132.14285714285714,124.21428571428571,215.14285714285714,191.35714285714283,350.0,159.28571428571428,174.73214285714286,203.14285714285714,80.89285714285714,293.78571428571433,343.6071428571429,123.80357142857142,148.78571428571428,245.78571428571428,119.28571428571428,172.7142857142857,122.71428571428571,167.41071428571428,291.875,218.25,117.85714285714285,258.7142857142857,186.25,194.73214285714286,186.25,124.78571428571428,376.25,129.16071428571428,58.71428571428571,80.19642857142857,279.57142857142856,182.14285714285714,88.39285714285714,327.2142857142857,176.4642857142857,195.125,194.35714285714283,274.75,274.57142857142856,161.42857142857142,343.7142857142857,207.53571428571428,311.0,153.2142857142857,326.07142857142856,153.30357142857144,141.85714285714286,79.14285714285714,367.39285714285717,320.3571428571429,165.89285714285714,115.01785714285714,263.375,391.9642857142857,242.19642857142858,89.46428571428571,87.69642857142857,70.55357142857143,127.35714285714285,89.57142857142857,233.75,156.33928571428572,287.1428571428571,315.5,143.30357142857144,235.12500000000003,69.0,203.66071428571428,513.0714285714286,142.28571428571428,141.7142857142857,260.67857142857144,396.85714285714283,143.21428571428572,432.5,199.82142857142856,288.57142857142856,135.28571428571428,132.94642857142858,462.8571428571429,150.17857142857144,144.64285714285714,212.28571428571428,171.875,292.5,90.42857142857143,231.85714285714283,243.75,189.625,256.4285714285714,273.85714285714283,72.96428571428571,115.92857142857142,396.21428571428567,318.4285714285714,67.25,200.78571428571428,144.35714285714286,247.17857142857142,200.14285714285714,308.2857142857143,203.48214285714286,350.3571428571429,298.6071428571429,276.9642857142857,358.1428571428571,291.2857142857143,272.25,245.28571428571428,66.39285714285714,92.41071428571428,101.41071428571428,207.05357142857144,222.42857142857142,82.35714285714285,251.125,133.48214285714286,140.98214285714286,312.0,259.875,363.39285714285717,192.57142857142856,184.625,344.57142857142856,328.2857142857143,221.14285714285714,158.30357142857144,230.35714285714283,312.1071428571429,133.5,281.41071428571433,201.875,177.0,177.32142857142856,87.375,174.28571428571428,184.73214285714286,83.83928571428571,292.0,162.0,346.9642857142857,135.0,348.57142857142856,240.75,118.28571428571428,294.0,247.07142857142856,284.625,158.48214285714286,293.875,248.57142857142856,202.5,316.875,297.67857142857144,267.32142857142856,267.0,183.75,274.7142857142857,359.7857142857143,301.9821428571429,133.60714285714286,391.66071428571433,260.875,174.78571428571428,167.0,233.75,120.53571428571429,203.4642857142857,282.5,241.5,115.57142857142857,388.9285714285714,398.57142857142856,190.08928571428572,97.33928571428571,109.44642857142857,224.25,265.7142857142857,211.5,161.07142857142858,271.5,189.32142857142856,423.30357142857144,308.375,414.8392857142857,178.17857142857142,298.1428571428571,294.75,152.85714285714286,427.625,304.85714285714283,142.58928571428572,171.28571428571428,300.57142857142856,287.375,169.10714285714286,408.4285714285714,207.41071428571428,185.57142857142856,230.35714285714283,185.89285714285714,181.82142857142856,182.89285714285714,188.78571428571428,232.25,213.125,254.14285714285714,249.5,225.625,202.17857142857142,134.0,108.71428571428571,262.14285714285717,213.9107142857143,74.03571428571428,167.23214285714286,224.28571428571428,209.42857142857142,304.2857142857143,235.0,154.19642857142858,97.92857142857142,153.21428571428572,207.25,243.14285714285714,225.48214285714286,217.5,247.125,197.25,103.125,467.30357142857144,196.7142857142857,109.35714285714285,285.60714285714283,279.1071428571429,139.28571428571428,318.2857142857143,221.57142857142856,305.3571428571429,215.375,239.25,205.26785714285714,188.14285714285714,468.2857142857143,152.03571428571428,255.21428571428572,216.0,209.0,169.07142857142856,94.23214285714285,138.64285714285714,409.82142857142856,123.92857142857142,134.92857142857142,202.17857142857142,352.7142857142857,121.85714285714285,145.78571428571428,252.0,144.64285714285714,490.0892857142857,304.5,257.6785714285714,247.0,207.125,165.64285714285714,211.375,180.625,247.60714285714283,158.35714285714286,302.32142857142856,55.89285714285714,213.5,176.0,287.1964285714286,130.42857142857142,240.58928571428572,147.14285714285714,93.91071428571428,396.6071428571429,95.57142857142857,331.6071428571429,245.7142857142857,101.19642857142857,182.05357142857144,234.0,247.0,159.2142857142857,278.57142857142856,162.42857142857142,223.625,403.0714285714286,307.125,188.66071428571428,194.55357142857144,193.21428571428572,288.4821428571429,217.39285714285714,250.07142857142856,61.75,220.42857142857142,275.57142857142856,181.82142857142856,282.375,205.71428571428572,90.64285714285714,111.42857142857142,250.87500000000003,189.875,37.30357142857142,148.125,285.25,330.91071428571433,153.5,245.0,117.0,198.10714285714283,253.6071428571429,279.0,336.2857142857143,205.125,121.07142857142857,242.375,237.14285714285714,188.25,219.5,227.28571428571428,301.1428571428571,191.875,222.53571428571428,129.05357142857142,171.10714285714286,254.625,347.7142857142857,180.32142857142856,252.14285714285714,224.03571428571428,241.07142857142856,234.7142857142857,229.7142857142857,339.91071428571433,211.28571428571428,180.08928571428572,369.16071428571433,234.14285714285714,177.42857142857142,304.55357142857144,317.5714285714286,237.05357142857144,206.69642857142858,112.85714285714285,254.0,180.53571428571428,186.0,161.7142857142857,240.14285714285714,126.96428571428572,106.875,289.4642857142857,192.05357142857144,77.25,244.39285714285714,272.25,175.07142857142856,116.92857142857142,222.5,318.7142857142857,135.0,302.35714285714283,274.375,228.0,62.94642857142857,339.1428571428571,100.44642857142857,63.57142857142857,209.0,317.85714285714283,190.39285714285714,354.57142857142856,67.71428571428571,124.17857142857142,407.5892857142857,79.55357142857143,218.28571428571428,39.44642857142857,180.64285714285714,63.64285714285714,161.25,107.03571428571428,227.875,223.30357142857144,144.91071428571428,66.14285714285714,226.375,177.0,346.3392857142857,318.8571428571429,271.875,159.2142857142857,128.57142857142856,353.4285714285714,368.67857142857144,166.69642857142858,308.3928571428571,243.64285714285717,259.2857142857143,213.75,291.0,145.80357142857144,256.7142857142857,443.3392857142857,244.0,134.64285714285714,230.625,142.94642857142858,185.89285714285714,221.14285714285714,305.4285714285714,166.25,350.8392857142857,198.10714285714283,103.64285714285714,306.64285714285717,178.21428571428572,156.16071428571428,151.42857142857144,85.23214285714285,127.07142857142857,168.75,104.57142857142857,352.92857142857144,76.92857142857143,185.625,460.23214285714283,407.19642857142856,122.35714285714285,272.5714285714286,249.375,203.78571428571428,180.89285714285714,264.875,165.53571428571428,307.0,149.10714285714286,183.375,110.28571428571428,196.07142857142856,325.4285714285714,195.2142857142857,207.375,231.0,190.625,94.28571428571428,229.125,302.30357142857144,158.48214285714286,201.53571428571428,191.875,258.85714285714283,201.60714285714286,342.5,121.5,373.66071428571433,222.28571428571428,267.0,237.85714285714283,147.94642857142858,235.125,180.32142857142856,263.57142857142856,247.7142857142857,148.125,223.875,295.875,173.625,127.66071428571428,244.42857142857142,265.1428571428571,153.0,175.5,334.4642857142857,281.75,339.23214285714283,169.5,119.41071428571428,192.58928571428572,150.78571428571428,124.57142857142857,149.89285714285714,95.625,203.125,206.42857142857144,245.42857142857142,260.2857142857143,270.85714285714283,365.14285714285717,250.125,131.0,291.625,261.875,280.2857142857143,224.25,159.46428571428572,214.7142857142857,120.14285714285714,292.17857142857144,346.7857142857143,251.25,148.57142857142858,81.03571428571428,522.8571428571428,192.42857142857142,168.64285714285714,217.7142857142857,331.85714285714283,109.42857142857142,252.85714285714283,196.17857142857142,224.57142857142856,224.5,278.125,236.42857142857142,144.64285714285714,132.92857142857142,95.83928571428571,182.0,89.21428571428571,225.0,215.57142857142856,174.42857142857142,357.69642857142856,216.0,170.42857142857142,127.76785714285714,103.5,253.5,105.10714285714285,219.375,374.35714285714283,215.57142857142856,170.57142857142856,192.10714285714283,313.7142857142857,126.07142857142857,307.14285714285717,188.125,247.60714285714283,221.42857142857142,190.5,303.0357142857143,288.16071428571433,126.91071428571428,195.75,237.37500000000003,143.39285714285714,153.03571428571428,170.57142857142856,172.67857142857144,259.85714285714283,298.4464285714286,236.14285714285714,302.875,171.75,172.85714285714286,277.7142857142857,250.2321428571429,35.589285714285715,114.58928571428571,207.0,137.23214285714286,245.03571428571428,125.71428571428571,232.25,98.67857142857142,308.7857142857143,97.60714285714285,117.92857142857142,350.1964285714286,163.83928571428572,190.25,261.32142857142856,157.05357142857144,176.57142857142856,166.39285714285714,223.21428571428572,379.69642857142856,257.8928571428571,185.75,326.25,205.07142857142856,192.5,428.39285714285717,468.85714285714283,225.80357142857144,172.39285714285714,256.0,95.5,123.85714285714285,118.71428571428571,197.03571428571428,243.64285714285714,159.53571428571428,301.2857142857143,235.25,129.85714285714286,201.75,213.25,149.55357142857144,180.75,213.5,163.0,284.5,238.85714285714283,280.4285714285714,254.14285714285714,95.46428571428571,227.35714285714283,125.21428571428571,225.96428571428572,181.75,151.42857142857144,342.0,339.2857142857143,451.5892857142857,441.7678571428571,268.7142857142857,329.80357142857144,230.375,301.2857142857143,95.89285714285714,207.5,332.8392857142857,184.60714285714283,166.07142857142856,250.42857142857142,339.2857142857143,284.1428571428571,193.28571428571428,80.39285714285714,392.7857142857143,148.78571428571428,175.98214285714286,371.7857142857143,193.5,96.92857142857142,208.7142857142857,154.28571428571428,320.17857142857144,176.03571428571428,163.39285714285714,195.125,416.625,189.73214285714286,216.53571428571428,245.14285714285714,157.76785714285714,126.92857142857142,367.2321428571429,109.875,263.75,161.0,173.35714285714286,236.07142857142858,272.375,170.03571428571428,106.76785714285714,171.53571428571428,268.75,155.89285714285714,203.92857142857144,97.66071428571428,186.2142857142857,311.92857142857144,213.7142857142857,230.42857142857142,253.5,212.25,198.64285714285714,100.64285714285714,226.875,168.30357142857144,455.0,170.4642857142857,222.42857142857142,261.0,145.71428571428572,169.78571428571428,185.7142857142857,70.0,257.14285714285717,114.28571428571428,209.75,61.32142857142857,157.5,263.4107142857143,171.64285714285714,129.46428571428572,272.5,258.875,135.0,181.07142857142856,134.89285714285714,313.125,265.25,461.0178571428571,133.0,83.51785714285714,184.28571428571428,361.1428571428571,160.44642857142858,123.42857142857142,242.375,177.64285714285714,132.07142857142856,92.28571428571428,52.0,241.07142857142856,170.4642857142857,274.01785714285717,62.535714285714285,67.57142857142857,241.5,260.8928571428571,298.5,176.64285714285714,212.42857142857142,173.89285714285714,458.6607142857143,155.5,105.21428571428571,192.85714285714283,290.375,173.0,151.69642857142858,125.21428571428571,112.76785714285714,209.10714285714286,265.375,268.7142857142857,189.19642857142858,178.14285714285714,231.75,392.67857142857144,288.25,190.35714285714286,212.32142857142858,227.14285714285714,290.625,117.28571428571428,317.1428571428571,79.0,252.96428571428572,274.7142857142857,142.5,188.57142857142856,172.23214285714286,268.7142857142857,256.75,352.57142857142856,304.625,283.125,82.33928571428571,434.4642857142857,296.125,434.8928571428571,197.375,290.375,306.2857142857143,452.4464285714286,293.25,155.92857142857142,97.66071428571428,222.125,170.78571428571428,302.32142857142856,291.7142857142857,204.375,321.7142857142857,123.64285714285714,100.42857142857142,192.57142857142856,99.96428571428571,141.64285714285714,304.875,120.89285714285714,219.75,396.64285714285717,409.07142857142856,89.03571428571428,123.05357142857142,170.71428571428572,218.25,239.67857142857142,327.4285714285714,184.5,234.1607142857143,212.35714285714283,385.0,198.42857142857142,172.14285714285714,510.6428571428571,119.14285714285714,432.1428571428571,368.03571428571433,282.375,381.2678571428571,396.7857142857143,171.875,170.03571428571428,453.75,405.4821428571429,99.42857142857142,101.14285714285714,356.2857142857143,173.125,144.5,429.6428571428571,422.32142857142856,68.25,247.50000000000003,311.30357142857144,278.85714285714283,132.23214285714286,65.21428571428571,209.14285714285714,155.64285714285714,77.60714285714285,229.28571428571428,136.42857142857144,252.125,311.2857142857143,276.5,182.0,165.64285714285714,166.07142857142856,190.375,281.625,298.2142857142857,237.42857142857142,229.125,167.35714285714286,217.17857142857142,230.28571428571428,206.25,88.55357142857143,239.5,102.92857142857142,207.76785714285714,145.78571428571428,240.2142857142857,290.0,444.64285714285717,378.57142857142856,275.5,87.85714285714285,81.64285714285714,282.875,121.21428571428571,293.6785714285714,363.5357142857143,129.64285714285714,145.89285714285714,266.375,65.14285714285714,59.57142857142857,360.0,312.1071428571429,145.26785714285714,394.4642857142857,134.14285714285714,362.5,195.35714285714286,235.5,153.78571428571428,270.0,115.5,111.42857142857142,365.625,243.25,138.03571428571428,132.35714285714286,273.9642857142857,302.30357142857144,249.0,128.92857142857142,193.21428571428572,271.4464285714286,304.2321428571429,242.0,149.28571428571428,157.28571428571428,150.92857142857142,55.0,187.25,135.71428571428572,188.67857142857142,194.625,331.6071428571429,184.82142857142858,181.85714285714286,160.80357142857144,296.57142857142856,335.0892857142857,156.16071428571428,164.19642857142858,236.25000000000003,452.57142857142856,206.89285714285714,367.71428571428567,255.21428571428572,329.4642857142857,259.0,255.0,81.16071428571428,164.375,208.625,255.25,257.625,334.125,174.35714285714286,162.14285714285714,164.57142857142856,124.85714285714285,132.0,428.2142857142857,235.85714285714283,230.7142857142857,169.82142857142856,106.17857142857142,286.5,301.9821428571429,225.32142857142856,320.57142857142856,252.28571428571428,394.87500000000006,137.94642857142858,409.2857142857143,367.7142857142857,151.78571428571428,211.7142857142857,401.14285714285717,180.0,350.3571428571429,215.42857142857142,353.57142857142856,258.75,197.25,135.78571428571428,230.78571428571428,88.33928571428571,271.85714285714283,226.25,300.0,166.60714285714286,139.375,272.7321428571429,302.875,160.39285714285714,234.0,115.23214285714285,286.85714285714283,249.1071428571429,238.82142857142858,260.875,331.6071428571429,195.98214285714286,98.78571428571428,207.32142857142856,281.7142857142857,368.8392857142857,96.64285714285714,278.0,210.57142857142856,375.0,186.2142857142857,140.28571428571428,256.0,0.0,281.07142857142856,233.0357142857143,351.7857142857143,231.26785714285717,200.0,223.375,181.60714285714286,162.5,137.23214285714286,100.92857142857142,226.14285714285714,203.03571428571428,187.28571428571428,295.4285714285714,132.67857142857144,130.89285714285714,267.6428571428571,85.98214285714285,113.28571428571428,171.42857142857144,105.96428571428571,180.85714285714286,233.57142857142856,74.14285714285714,113.64285714285714,171.42857142857142,98.30357142857142,25.21428571428571,212.89285714285714,362.80357142857144,174.42857142857142,146.25,119.64285714285714,231.28571428571428,200.57142857142856,129.42857142857142,236.4642857142857,164.78571428571428,269.1428571428571,204.85714285714283,76.82142857142857,85.28571428571428,297.0,154.55357142857144,280.76785714285717,306.375,170.08928571428572,194.375,192.42857142857142,99.10714285714285,162.32142857142856,226.75,90.42857142857143,117.78571428571428,262.1428571428571,176.57142857142856,227.67857142857142,249.9642857142857,173.39285714285714,353.7857142857143,126.69642857142857,283.1428571428571,332.14285714285717,110.73214285714285,237.25,58.64285714285714,347.14285714285717,159.73214285714286,212.4642857142857,162.58928571428572,318.2142857142857,207.32142857142856,165.0,141.78571428571428,241.7142857142857,342.85714285714283,205.39285714285714,349.875,152.23214285714286,194.73214285714286,347.67857142857144,324.3214285714286,176.67857142857142,169.7142857142857,53.357142857142854,301.0,140.28571428571428,85.5,183.64285714285714,220.625,192.58928571428572,340.89285714285717,144.375,178.07142857142856,112.28571428571428,279.4285714285714,282.75,217.85714285714283,83.78571428571428,86.19642857142857,287.51785714285717,189.0,120.64285714285714,215.5,124.92857142857142,160.44642857142858,135.75,151.16071428571428,289.5,252.64285714285714,342.0,226.60714285714286,313.4285714285714,189.64285714285714,178.17857142857142,236.25,531.8392857142858,192.42857142857142,63.96428571428571,114.85714285714285,294.82142857142856,164.14285714285714,252.1607142857143,248.14285714285717,395.1428571428571,253.44642857142858,64.71428571428571,213.64285714285714,355.0,163.92857142857144,179.01785714285714,184.7142857142857,198.9642857142857,256.2857142857143,149.73214285714286,84.85714285714285,232.85714285714283,198.30357142857144,307.125,137.5,286.7142857142857,291.375,172.92857142857142,143.30357142857144,94.28571428571428,183.0,231.5,185.35714285714283,161.69642857142858,0.0,321.0,218.39285714285714,245.25,183.53571428571428,191.78571428571428,351.0,277.0714285714286,296.07142857142856,149.64285714285714,180.44642857142858,128.39285714285714,240.0,165.44642857142858,235.39285714285714,185.03571428571428,286.2857142857143,238.7142857142857,264.375,184.0,404.7857142857143,311.9642857142857,131.16071428571428,171.0,222.125,224.875,91.875,248.85714285714283,299.2857142857143,261.4821428571429,224.03571428571428,90.0,230.0,141.51785714285714,237.75,78.0,246.10714285714283,161.07142857142856,336.85714285714283,343.6071428571429,184.875,252.25,135.14285714285714,318.0178571428571,147.05357142857144,212.875,266.0,74.5,310.5,228.42857142857142,453.35714285714283,117.71428571428571,454.1428571428571,149.10714285714286,394.2857142857143,133.0,114.21428571428571,185.875,391.0,132.14285714285714,141.96428571428572,181.375,156.42857142857144,190.92857142857142,488.5,171.32142857142856,164.89285714285714,212.625,198.0,199.0,198.21428571428572,211.5,286.5892857142857,85.125,234.14285714285714,235.57142857142856,139.28571428571428,322.57142857142856,211.75,153.83928571428572,167.58928571428572,197.125,248.14285714285714,128.07142857142856,328.01785714285717,244.92857142857144,290.41071428571433,247.82142857142856,202.14285714285714,319.85714285714283,161.96428571428572,144.64285714285714,145.89285714285714,258.26785714285717,227.0,407.5892857142857,275.4285714285714,171.10714285714286,159.55357142857144,262.6071428571429,230.78571428571428,115.35714285714285,441.30357142857144,207.75,177.85714285714286,178.92857142857142,172.92857142857142,127.35714285714285,23.803571428571427,269.85714285714283,165.98214285714286,181.875,172.32142857142858,294.7142857142857,172.07142857142856,255.25,169.19642857142858,258.25,360.0,217.07142857142856,187.82142857142856,420.75,307.625,275.78571428571433,281.41071428571433,212.57142857142856,136.28571428571428,85.07142857142857,110.44642857142857,245.625,263.7142857142857,266.30357142857144,321.1428571428571,152.5,434.30357142857144,112.21428571428571,171.96428571428572,296.7142857142857,70.64285714285714,129.0,193.07142857142856,217.0,179.875,302.69642857142856,250.14285714285714,166.92857142857142,254.625,351.4821428571429,88.5,205.7142857142857,215.35714285714283,435.3571428571429,53.92857142857142,123.42857142857142,70.01785714285714,219.85714285714286,140.08928571428572,282.57142857142856,407.25,328.1428571428571,63.89285714285714,210.25,250.0,252.00000000000003,216.28571428571428,149.19642857142858,244.07142857142856,215.875,144.0,126.25,126.33928571428572,246.07142857142858,217.625,436.4642857142857,230.89285714285714,172.5,356.2857142857143,218.7142857142857,348.57142857142856,184.39285714285714,175.98214285714286,323.2857142857143,119.35714285714285,313.92857142857144,271.5,243.5,316.6071428571429,253.60714285714283,130.35714285714286,143.7142857142857,152.25,294.57142857142856,256.9821428571429,208.625,229.125,152.67857142857144,124.39285714285714,217.14285714285714,305.75,154.55357142857144,92.78571428571428,248.25,197.41071428571428,192.94642857142858,240.7142857142857,181.625,264.2857142857143,388.5357142857143,170.57142857142856,218.75,291.07142857142856,440.35714285714283,236.42857142857142,276.57142857142856,160.57142857142856,337.01785714285717,134.85714285714286,171.32142857142856,303.5,170.35714285714286,325.2857142857143,122.42857142857142,496.71428571428567,133.78571428571428,157.85714285714286,266.57142857142856,217.14285714285714,386.03571428571433,243.25,153.66071428571428,184.28571428571428,316.7857142857143,368.67857142857144,171.69642857142858,320.85714285714283,303.0,124.28571428571428,210.44642857142858,289.76785714285717,80.73214285714285,320.1428571428571,330.5357142857143,107.28571428571428,331.57142857142856,250.125,242.57142857142856,184.7142857142857,113.30357142857142,264.6964285714286,139.85714285714286,174.42857142857142,210.85714285714283,414.2857142857143,144.55357142857144,56.89285714285714,165.17857142857144,192.14285714285714,287.125,177.0,132.14285714285714,177.5,201.7142857142857,180.0,194.4642857142857,366.7857142857143,83.46428571428571,234.75,90.53571428571428,178.35714285714286,140.625,187.85714285714286,76.39285714285714,173.5,163.83928571428572,119.71428571428571,192.32142857142856,314.3571428571429,324.3214285714286,216.5,174.0,228.85714285714283,222.625,139.91071428571428,212.25,189.91071428571428,195.85714285714283,60.64285714285714,301.5,214.17857142857142,369.3214285714286,217.7142857142857,287.875,309.375,392.07142857142856,222.67857142857144,311.57142857142856,200.89285714285714,170.35714285714286,53.5,215.5,104.89285714285714,256.4285714285714,105.96428571428571,203.75,218.125,151.28571428571428,258.0,232.23214285714286,199.07142857142856,215.0,220.0,103.55357142857142,236.67857142857142,208.0,116.64285714285714,77.5,286.5,224.0,327.25,198.7142857142857,233.4642857142857,327.125,142.32142857142858,211.875,220.14285714285714,177.76785714285714,442.75,218.375,129.57142857142856,287.125,108.92857142857142,289.75,305.1428571428571,245.0,105.96428571428571,119.71428571428571,38.30357142857142,147.10714285714286,157.17857142857142,149.73214285714286,245.35714285714283,290.89285714285717,122.42857142857142,224.625,129.28571428571428,374.78571428571433,253.57142857142856,242.78571428571428,220.7142857142857,346.5,253.25,257.8928571428571,123.71428571428571,173.42857142857142,188.14285714285714,338.4642857142857,174.32142857142856,195.75,139.01785714285714,185.08928571428572,61.25,209.55357142857144,189.0,348.4642857142857,362.57142857142856,67.0,136.60714285714286,142.58928571428572,301.42857142857144,125.78571428571428,301.1428571428571,415.3571428571429,128.42857142857142,367.85714285714283,98.78571428571428,188.35714285714283,162.75,65.25,246.625,140.5,129.05357142857142,223.5,346.25,269.25,70.75,287.57142857142856,342.0,187.625,155.26785714285714,385.5357142857143,298.4464285714286,164.10714285714286,223.7142857142857,111.5,154.28571428571428,224.875,164.35714285714286,124.64285714285714,192.0,213.375,380.0892857142857,308.375,56.21428571428571,288.0357142857143,437.44642857142856,215.5,98.89285714285714,122.19642857142857,248.35714285714283,209.89285714285714,83.08928571428571,306.23214285714283,240.2142857142857,83.03571428571428,256.85714285714283,319.3392857142857,123.5,174.82142857142858,211.125,155.67857142857142,55.64285714285714,207.42857142857142,177.9642857142857,248.28571428571428,310.85714285714283,159.28571428571428,159.91071428571428,353.25,135.17857142857144,390.5,93.42857142857142,150.57142857142856,397.7678571428571,282.5,209.78571428571428,162.7142857142857,194.14285714285714,367.32142857142856,211.42857142857142,216.64285714285714,308.0357142857143,181.16071428571428,314.0,233.57142857142856,242.875,86.08928571428571,238.14285714285714,120.32142857142857,222.875,119.07142857142857,110.71428571428572,94.71428571428571,392.9464285714286,348.57142857142856,329.0,61.96428571428571,290.5357142857143,258.26785714285717,183.2142857142857,126.5,100.28571428571428,199.28571428571428,317.14285714285717,239.875,151.85714285714286,329.4285714285714,204.10714285714283,273.0,59.46428571428571,292.8214285714286,221.67857142857142,137.5,238.92857142857142,167.35714285714286,155.53571428571428,224.75,232.0,330.3571428571429,234.64285714285714,123.42857142857142,177.76785714285714,153.75,61.64285714285714,351.85714285714283,243.85714285714283,188.25,171.2142857142857,199.91071428571428,244.14285714285714,265.8214285714286,153.53571428571428,274.875,94.60714285714285,399.73214285714283,256.3928571428571,194.91071428571428,338.2142857142857,175.89285714285714,285.17857142857144,294.0,263.57142857142856,147.05357142857144,89.25,181.92857142857142,170.67857142857142,318.7142857142857,171.0,384.85714285714283,111.85714285714285,136.78571428571428,89.5,236.875,281.5714285714286,319.3392857142857,218.625,323.57142857142856,179.67857142857142,150.64285714285714,192.75,56.82142857142857,184.28571428571428,283.625,174.5,174.53571428571428,238.85714285714283,169.73214285714286,224.42857142857142,209.28571428571428,164.03571428571428,245.89285714285714,237.75,312.5,244.12500000000003,133.14285714285714,268.2857142857143,223.85714285714283,342.3214285714286,181.60714285714286,203.875,139.92857142857142,223.57142857142856,195.9642857142857,210.64285714285714,195.98214285714286,93.69642857142857,176.35714285714286,414.85714285714283,205.92857142857142,173.625,263.625,403.0,286.39285714285717,96.53571428571428,126.0,216.9642857142857,307.6071428571429,435.48214285714283,250.0,92.25,132.5,380.67857142857144,339.91071428571433,277.14285714285717,158.125,115.85714285714285,386.57142857142856,284.78571428571433,145.08928571428572,256.125,111.64285714285714,161.5,144.2142857142857,160.26785714285714,174.35714285714286,203.875,436.7857142857143,298.375,123.0,324.2857142857143,186.51785714285714,322.67857142857144,142.92857142857142,263.625,375.17857142857144,273.1428571428571,254.64285714285714,120.64285714285714,156.60714285714286,210.125,397.14285714285717,263.5,265.17857142857144,239.7857142857143,249.57142857142856,160.0,197.5,217.5,174.92857142857142,156.92857142857142,199.19642857142858,245.875,177.125,100.55357142857142,257.4285714285714,407.5,300.4285714285714,273.92857142857144,201.875,232.75,231.125,384.5892857142857,333.39285714285717,280.89285714285717,171.625,121.85714285714285,269.0,184.91071428571428,158.03571428571428,167.41071428571428,266.0,299.82142857142856,130.80357142857144,147.76785714285714,180.42857142857142,150.26785714285714,168.66071428571428,197.75,208.07142857142856,355.3392857142857,128.28571428571428,286.7142857142857,522.8571428571428,221.35714285714283,86.35714285714285,152.76785714285714,153.125,145.26785714285714,270.5357142857143,165.2142857142857,182.32142857142858,115.98214285714285,99.96428571428571,182.14285714285714,156.92857142857142,311.0,153.57142857142858,131.78571428571428,307.14285714285717,192.625,119.625,157.67857142857144,525.8035714285714,301.3392857142857,214.875,215.71428571428572,241.625,275.25,201.53571428571428,430.9285714285714,223.875,103.14285714285714,82.66071428571428,285.4285714285714,39.42857142857142,171.10714285714286,203.39285714285714,200.875,237.57142857142856,501.875,236.89285714285714,181.0,219.25,183.53571428571428,216.51785714285714,89.73214285714285,166.82142857142856,186.75,64.42857142857143,170.4642857142857,135.28571428571428,196.85714285714283,319.01785714285717,159.10714285714286,207.5,218.28571428571428,134.64285714285714,291.875,292.8214285714286,134.28571428571428,124.39285714285714,363.53571428571433,411.5892857142857,153.66071428571428,237.14285714285714,273.0357142857143,163.7142857142857,240.42857142857142,251.25,266.25,255.57142857142856,263.7321428571429,197.5,212.0,157.7142857142857,161.64285714285714,164.07142857142856,108.53571428571428,163.75,122.57142857142857,331.7678571428571,227.35714285714283,139.55357142857144,281.375,296.4107142857143,186.60714285714286,163.82142857142856,194.875,217.82142857142856,223.71428571428572,211.875,145.98214285714286,189.32142857142856,250.0,241.28571428571428,87.85714285714285,294.2857142857143,181.39285714285714,228.9642857142857,26.75,318.375,529.0535714285714,144.64285714285714,196.25,185.35714285714283,288.80357142857144,209.28571428571428,448.07142857142856,238.98214285714286,109.42857142857142,299.4642857142857,122.78571428571428,199.60714285714283,248.85714285714283,99.07142857142857,207.42857142857142,253.17857142857142,187.125,194.89285714285714,299.5714285714286,247.82142857142856,141.85714285714286,186.9642857142857,127.28571428571428,114.96428571428571,116.92857142857142,291.1428571428571,249.25,102.05357142857142,207.64285714285714,299.625,188.4642857142857,348.91071428571433,241.875,126.42857142857142,171.25,60.17857142857142,269.1964285714286,223.66071428571428,232.85714285714286,368.67857142857144,251.375,213.125,244.0,267.2857142857143,254.57142857142858,187.75,421.92857142857144,207.32142857142856,258.57142857142856,357.69642857142856,275.17857142857144,223.125,115.55357142857142,190.60714285714283,251.25,110.78571428571428,218.42857142857142,290.7321428571429,157.58928571428572,252.1607142857143,128.35714285714286,295.75,238.92857142857142,180.71428571428572,164.46428571428572,244.375,235.60714285714286,173.89285714285714,85.125,458.4642857142857,90.26785714285714,167.85714285714286,365.14285714285717,431.55357142857144,205.0,182.67857142857142,149.55357142857144,99.48214285714285,316.4464285714286,495.85714285714283,252.57142857142856,261.64285714285717,223.75,137.32142857142858,154.64285714285714,230.875,141.2142857142857,176.25,316.28571428571433,288.0,213.625,272.25,164.10714285714286,297.80357142857144,127.23214285714286,287.8392857142857,191.375,175.125,264.85714285714283,218.28571428571428,131.07142857142856,347.0,216.125,219.625,219.64285714285714,170.89285714285714,186.32142857142856,100.28571428571428,306.2857142857143,136.5,99.14285714285714,163.03571428571428,198.30357142857144,265.5,176.78571428571428,151.14285714285714,282.6964285714286,223.57142857142856,166.875,364.9821428571429,94.01785714285714,321.2857142857143,287.75,292.8214285714286,114.5,348.91071428571433,189.85714285714283,105.64285714285714,264.4285714285714,131.2142857142857,127.07142857142857,130.64285714285714,105.21428571428571,198.66071428571428,126.5,338.92857142857144,70.98214285714285,104.64285714285714,187.375,230.28571428571428,280.4285714285714,175.92857142857142,94.28571428571428,121.14285714285714,254.28571428571428,296.25,318.7142857142857,91.23214285714285,316.6071428571429,129.375,88.875,80.83928571428571,358.7142857142857,338.75,225.9642857142857,180.9642857142857,129.78571428571428,500.1428571428571,165.0,281.7857142857143,236.625,87.48214285714285,275.25,117.57142857142857,196.92857142857142,246.125,130.7142857142857,263.2857142857143,452.17857142857144,128.78571428571428,186.42857142857142,234.32142857142858,298.57142857142856,232.14285714285714,217.92857142857142,55.785714285714285,407.7857142857143,208.125,108.64285714285714,344.85714285714283,217.7142857142857,81.0,88.55357142857143,116.28571428571428,123.28571428571428,102.26785714285714,334.92857142857144,250.85714285714283,242.0,321.4285714285714,159.01785714285714,122.92857142857142,117.78571428571428,421.25,70.17857142857143,122.28571428571428,164.375,302.0,182.94642857142858,227.7142857142857,301.32142857142856,229.25,218.75,270.2857142857143,282.57142857142856,171.07142857142858,355.9821428571429,397.67857142857144,200.375,144.85714285714286,384.4107142857143,290.0,185.125,88.66071428571428,257.7857142857143,78.05357142857143,165.42857142857142,196.875,164.25,456.30357142857144,266.7142857142857,268.875,258.92857142857144,342.9642857142857,202.25,121.85714285714285,260.0,193.25,364.07142857142856,359.1428571428571,330.7142857142857,244.39285714285714,234.125,350.03571428571433,308.4285714285714,428.92857142857144,141.51785714285714,227.35714285714283,167.14285714285714,171.42857142857142,228.14285714285714,159.73214285714286,153.9642857142857,352.0,363.5892857142857,191.16071428571428,169.375,178.60714285714286,372.0357142857143,276.85714285714283,167.25,305.03571428571433,172.5,140.85714285714286,344.92857142857144,290.0,322.55357142857144,258.25,133.85714285714286,316.9642857142857,224.5,263.4285714285714,316.4464285714286,143.0,280.0,275.0,271.92857142857144,121.85714285714285,211.875,165.75,170.2142857142857,210.0,309.1071428571429,138.05357142857142,68.57142857142857,255.25,337.32142857142856,204.375,298.0357142857143,227.7142857142857,279.25,328.66071428571433,259.2857142857143,221.125,295.7142857142857,164.46428571428572,240.625,207.2142857142857,234.14285714285714,208.03571428571428,236.28571428571428,288.75,263.375,215.125,134.78571428571428,310.7142857142857,274.66071428571433,186.7142857142857,448.8392857142857,257.4285714285714,190.5,159.73214285714286,210.89285714285714,297.80357142857144,302.4642857142857,193.125,229.01785714285717,395.03571428571433,128.92857142857142,175.82142857142856,244.5,240.28571428571428,215.89285714285714,236.0,338.1428571428571,186.2142857142857,171.64285714285714,148.85714285714286,316.1428571428571,293.25,217.28571428571428,182.35714285714286,311.30357142857144,121.60714285714285,125.71428571428571,186.85714285714283,279.0,180.89285714285714,209.5,324.4821428571429,218.375,238.7142857142857,144.14285714285714,232.0,214.75,330.0,267.85714285714283,117.78571428571428,195.5,461.0178571428571,249.625,139.64285714285714,304.125,160.53571428571428,218.125,109.98214285714285,227.0,205.17857142857144,97.23214285714285,257.0,376.4285714285714,94.66071428571428,325.17857142857144,178.75,213.92857142857144,206.28571428571428,306.1428571428571,265.2857142857143,217.28571428571428,341.85714285714283,124.875,309.2857142857143,151.875,179.89285714285714,246.7142857142857,430.7678571428571,213.125,227.5,258.75,127.58928571428572,171.85714285714286,264.125,221.0,208.60714285714283,243.0,269.85714285714283,330.7142857142857,145.80357142857144,182.41071428571428,91.76785714285714,460.625,188.28571428571428,107.625,341.42857142857144,220.33928571428572,264.64285714285717,289.375,343.85714285714283,198.25,308.125,229.6607142857143,152.23214285714286,239.7142857142857,178.0,127.71428571428571,85.01785714285714,281.0,201.125,218.375,104.35714285714285,219.75,248.5,282.8571428571429,274.4107142857143,299.375,89.57142857142857,237.14285714285714,332.25,59.39285714285714,422.8571428571429,101.94642857142857,111.42857142857142,291.25,187.625,176.14285714285714,142.85714285714286,251.67857142857144,266.9464285714286,326.7142857142857,183.39285714285714,210.42857142857142,402.75000000000006,94.5,113.78571428571428,173.66071428571428,101.83928571428571,299.1071428571429,247.625,153.03571428571428,333.1428571428571,274.25,389.82142857142856,83.19642857142857,328.92857142857144,31.71428571428571,125.64285714285714,147.94642857142858,142.58928571428572,309.875,235.5,107.78571428571428,250.25,208.0,230.625,192.25,217.7142857142857,276.5892857142857,132.7142857142857,223.375,170.67857142857142,235.875,150.0,264.375,176.67857142857142,186.875,309.6964285714286,211.60714285714283,186.875,384.75000000000006,123.35714285714285,132.5,354.05357142857144,161.57142857142856,134.375,562.2321428571429,230.67857142857142,88.66071428571428,233.28571428571428,205.60714285714283,201.16071428571428,195.625,255.28571428571428,326.6071428571429,132.2142857142857,262.25,132.85714285714286,137.5,264.85714285714283,130.57142857142856,88.82142857142857,189.7142857142857,178.60714285714286,214.5,409.55357142857144,390.53571428571433,302.85714285714283,237.5357142857143,194.35714285714283,152.58928571428572,287.57142857142856,446.07142857142856,87.53571428571428,166.42857142857144,39.125,174.42857142857142,162.41071428571428,114.64285714285714,158.35714285714286,331.07142857142856,208.82142857142856,138.92857142857144,185.875,145.0,127.28571428571428,161.25,170.89285714285714,186.28571428571428,108.48214285714285,145.89285714285714,195.26785714285714,285.1428571428571,91.55357142857142,263.4107142857143,124.28571428571428,301.7142857142857,145.71428571428572,173.92857142857144,165.07142857142856,155.78571428571428,378.1607142857143,163.48214285714286,152.23214285714286,172.0,259.82142857142856,172.7142857142857,270.75,75.60714285714285,161.96428571428572,257.6785714285714,130.64285714285714,115.33928571428571,220.125,124.78571428571428,152.85714285714286,297.25,123.78571428571428,194.28571428571428,203.75,188.57142857142856,416.0,180.80357142857144,194.89285714285714,228.14285714285714,244.7142857142857,119.14285714285714,338.2142857142857,251.875,375.17857142857144,135.71428571428572,305.0,218.75,310.4285714285714,176.78571428571428,276.0,250.71428571428572,189.9642857142857,211.7142857142857,342.9642857142857,268.2857142857143,189.125,90.64285714285714,310.5357142857143,137.67857142857144,194.10714285714286,230.03571428571428,289.0,409.0357142857143,265.25,159.2142857142857,240.57142857142856,250.875,319.2857142857143,266.4642857142857,251.57142857142856,431.9642857142857,296.875,163.83928571428572,267.75,382.66071428571433,123.07142857142857,289.6071428571429,359.5892857142857,231.25,140.2142857142857,310.85714285714283,145.35714285714286,259.2857142857143,257.375,343.1428571428571,205.98214285714286,231.57142857142856,390.8571428571429,138.35714285714286,249.57142857142856,342.57142857142856,113.21428571428571,317.75,257.85714285714283,369.80357142857144,412.87500000000006,292.8214285714286,331.2857142857143,174.82142857142858,256.1428571428571,87.96428571428571,280.25,148.83928571428572,235.0,347.78571428571433,285.3571428571429,317.7142857142857,280.125,194.64285714285714,133.78571428571428,121.64285714285714,137.32142857142858,0.0,114.64285714285714,85.85714285714285,179.875,131.42857142857142,123.42857142857142,154.92857142857142,522.0892857142858,97.42857142857142,114.42857142857142,79.98214285714285,117.53571428571428,101.25,270.2857142857143,100.5,359.67857142857144,252.42857142857142,155.4642857142857,121.85714285714285,366.7857142857143,185.53571428571428,280.92857142857144,185.25,159.64285714285714,219.125,200.57142857142856,37.625,225.85714285714283,163.125,291.5,101.73214285714285,138.03571428571428,209.25,176.67857142857142,152.89285714285714,141.14285714285714,142.58928571428572,114.69642857142857,243.25,221.25,265.57142857142856,199.85714285714283,179.5,383.4642857142857,155.53571428571428,34.839285714285715,60.46428571428571,277.55357142857144,194.89285714285714,172.7142857142857,199.28571428571428,216.125,227.57142857142856,223.25,389.5714285714286,332.14285714285717,231.57142857142856,177.9642857142857,178.39285714285714,179.64285714285714,392.85714285714283,222.64285714285714,155.89285714285714,507.85714285714283,267.1428571428571,298.7678571428571,397.8571428571429,418.17857142857144,163.5,310.01785714285717,185.14285714285714,129.85714285714286,93.16071428571428,208.625,171.07142857142858,142.57142857142856,213.75,243.875,313.875,192.125,232.7142857142857,240.42857142857142,319.01785714285717,109.01785714285714,103.44642857142857,362.32142857142856,150.64285714285714,205.875,266.1428571428571,334.5178571428571,208.0,306.125,203.03571428571428,217.82142857142856,120.71428571428571,300.625,152.41071428571428,122.30357142857142,207.125,359.67857142857144,135.71428571428572,130.7142857142857,287.0,277.0714285714286,112.0,124.28571428571429,94.39285714285714,196.07142857142856,163.66071428571428,99.42857142857142,115.5,120.16071428571428,257.7142857142857,218.78571428571428,173.75,194.14285714285714,245.5,186.75,222.75,36.0,254.28571428571428,316.5,362.14285714285717,240.58928571428572,179.03571428571428,287.3571428571429,214.64285714285714,118.5,397.76785714285717,101.67857142857142,395.0,62.25,247.50000000000003,258.1071428571429,429.1071428571429,238.5,112.98214285714285,235.0,228.25,172.7142857142857,201.16071428571428,231.75,414.2857142857143,254.75,172.07142857142856,225.7142857142857,195.5,204.91071428571428,234.32142857142856,239.85714285714283,203.75,222.375,82.17857142857143,217.23214285714286,237.125,281.375,209.0,152.76785714285714,216.64285714285714,228.85714285714283,197.25,291.8571428571429,234.85714285714283,185.89285714285714,302.625,229.375,143.0,332.7142857142857,291.53571428571433,259.39285714285717,75.42857142857143,114.28571428571428,341.2857142857143,455.5178571428571,78.89285714285714,412.71428571428567,108.42857142857142,317.625,159.46428571428572,228.69642857142858,229.25,231.85714285714283,210.80357142857144,152.67857142857144,256.85714285714283,302.30357142857144,226.0,360.3214285714286,193.75,230.875,112.17857142857142,78.32142857142857,251.57142857142856,280.75,105.35714285714285,168.92857142857142,284.125,195.75,207.0,361.4464285714286,323.57142857142856,242.75,373.9821428571429,211.28571428571428,157.94642857142858,298.2142857142857,93.80357142857142,129.78571428571428,204.01785714285714,155.0,157.85714285714286,210.89285714285714,77.08928571428571,223.17857142857142,351.16071428571433,169.28571428571428,518.3571428571428,194.67857142857142,125.03571428571428,277.2321428571429,117.21428571428571,160.625,119.07142857142857,334.4285714285714,166.875,195.80357142857144,123.80357142857142,422.5178571428571,339.42857142857144,228.875,104.21428571428571,293.75,208.17857142857142,79.07142857142857,169.375,130.82142857142856,223.875,290.0,225.75,370.4464285714286,258.26785714285717,437.78571428571433,104.30357142857142,59.64285714285714,261.4821428571429,323.85714285714283,103.28571428571428,277.125,273.5357142857143,128.92857142857142,194.14285714285714,249.57142857142856,197.5,131.5,363.98214285714283,282.0,120.96428571428571,158.125,252.14285714285714,232.625,109.85714285714285,285.3571428571429,283.2857142857143,90.58928571428571,278.4285714285714,230.14285714285714,131.42857142857142,128.4642857142857,177.85714285714286
